{
    "AcquisitionMatrixPE": 64,
    "AcquisitionNumber": 1,
    "AcquisitionTime": "15:59:26.682500",
    "BandwidthPerPixelPhaseEncode": 28.935,
    "BaseResolution": 64,
    "BodyPartExamined": "BRAIN",
    "CoilCombinationMethod": "Sum of Squares",
    "ConsistencyInfo": "N4_VE11E_LATEST_20181129",
    "ConversionSoftware": "dcm2niix",
    "ConversionSoftwareVersion": "v1.0.20211006",
    "DerivedVendorReportedEchoSpacing": 0.000540003,
    "DeviceSerialNumber": "166182",
    "DwellTime": 3.4e-06,
    "EchoTime": 0.032,
    "EchoTrainLength": 64,
    "EffectiveEchoSpacing": 0.000540003,
    "FlipAngle": 40,
    "ImageOrientationPatientDICOM": [
        0.999879,
        -0.0142324,
        -0.00622674,
        0.0139618,
        0.99904,
        -0.0415215
    ],
    "ImageOrientationText": "Tra>Cor(-2.4)>Sag(-0.4)",
    "ImageType": [
        "ORIGINAL",
        "PRIMARY",
        "M",
        "ND",
        "NORM",
        "MOSAIC"
    ],
    "ImagingFrequency": 123.258,
    "InPlanePhaseEncodingDirectionDICOM": "COL",
    "InstitutionAddress": "PEARSE STREET .,City,District,IE,D2",
    "InstitutionName": "TCIN",
    "InstitutionalDepartmentName": "MRI",
    "MRAcquisitionType": "2D",
    "MagneticFieldStrength": 3,
    "Manufacturer": "Siemens",
    "ManufacturersModelName": "Prisma",
    "Modality": "MR",
    "MultibandAccelerationFactor": 4,
    "PartialFourier": 1,
    "PatientPosition": "HFS",
    "PercentPhaseFOV": 100,
    "PercentSampling": 100,
    "PhaseEncodingDirection": "j-",
    "PhaseEncodingSteps": 64,
    "PhaseResolution": 1,
    "PixelBandwidth": 2300,
    "ProcedureStepDescription": "Rhodri^Head BOLD",
    "ProtocolName": "cmrr_mbep2d_bold_Pictures_AP",
    "PulseSequenceDetails": "%SiemensSeq%\\ep2d_bold",
    "ReceiveCoilActiveElements": "HC2,4,6,7;NC2;SC",
    "ReceiveCoilName": "SpecialPurpose_4",
    "ReconMatrixPE": 64,
    "RefLinesPE": 12,
    "RepetitionTime": 0.61,
    "SAR": 0.343799,
    "ScanOptions": "FS",
    "ScanningSequence": "EP",
    "SequenceName": "*epfid2d1_64",
    "SequenceVariant": "SK",
    "SeriesDescription": "cmrr_mbep2d_bold_Pictures_AP",
    "SeriesNumber": 7,
    "ShimSetting": [
        -3578,
        -7425,
        3731,
        1174,
        -206,
        -3,
        -19,
        -104
    ],
    "SliceThickness": 3,
    "SliceTiming": [
        0.2625,
        0,
        0.3275,
        0.065,
        0.3925,
        0.13,
        0.4575,
        0.195,
        0.525,
        0.2625,
        0,
        0.3275,
        0.065,
        0.3925,
        0.13,
        0.4575,
        0.195,
        0.525,
        0.2625,
        0,
        0.3275,
        0.065,
        0.3925,
        0.13,
        0.4575,
        0.195,
        0.525,
        0.2625,
        0,
        0.3275,
        0.065,
        0.3925,
        0.13,
        0.4575,
        0.195,
        0.525
    ],
    "SoftwareVersions": "syngo MR E11",
    "SpacingBetweenSlices": 3.3,
    "StationName": "AWP166182",
    "TaskName": "pictures",
    "TotalReadoutTime": 0.0340202,
    "TxRefAmp": 242.237,
    "dcmmeta_affine": [
        [
            -2.999638080596924,
            0.041885536164045334,
            -0.02247866429388523,
            95.86790466308594
        ],
        [
            0.04269710183143616,
            2.9971201419830322,
            -0.13671749830245972,
            -104.90834045410156
        ],
        [
            -0.018680233508348465,
            0.12456447631120682,
            3.2970900535583496,
            -103.23894500732422
        ],
        [
            0.0,
            0.0,
            0.0,
            1.0
        ]
    ],
    "dcmmeta_reorient_transform": [
        [
            0.0,
            -1.0,
            0.0,
            63.0
        ],
        [
            1.0,
            0.0,
            0.0,
            0.0
        ],
        [
            0.0,
            0.0,
            1.0,
            0.0
        ],
        [
            0.0,
            0.0,
            0.0,
            1.0
        ]
    ],
    "dcmmeta_shape": [
        64,
        64,
        36,
        510
    ],
    "dcmmeta_slice_dim": 2,
    "dcmmeta_version": 0.6,
    "global": {
        "const": {
            "AcquisitionMatrix": [
                64,
                0,
                0,
                64
            ],
            "AngioFlag": "N",
            "BitsAllocated": 16,
            "BitsStored": 12,
            "BodyPartExamined": "BRAIN",
            "Columns": 384,
            "EchoNumbers": 1,
            "EchoTime": 32.0,
            "EchoTrainLength": 64,
            "FlipAngle": 40.0,
            "HighBit": 11,
            "ImageOrientationPatient": [
                0.99987932641103,
                -0.0142323669394,
                -0.0062267445041,
                0.01396184576325,
                0.99904005554659,
                -0.0415214917404
            ],
            "ImagePositionPatient": [
                -585.15045780601,
                -556.61792198948,
                -72.472228020356
            ],
            "ImageType": [
                "ORIGINAL",
                "PRIMARY",
                "M",
                "ND",
                "NORM",
                "MOSAIC"
            ],
            "ImagedNucleus": "1H",
            "ImagingFrequency": 123.258023,
            "InPlanePhaseEncodingDirection": "COL",
            "MRAcquisitionType": "2D",
            "MagneticFieldStrength": 3.0,
            "Manufacturer": "SIEMENS",
            "ManufacturerModelName": "Prisma",
            "Modality": "MR",
            "NumberOfAverages": 1.0,
            "NumberOfPhaseEncodingSteps": 64,
            "PercentPhaseFieldOfView": 100.0,
            "PercentSampling": 100.0,
            "PerformedProcedureStepStartTime": "153535.414000",
            "PhotometricInterpretation": "MONOCHROME2",
            "PixelBandwidth": 2300.0,
            "PixelRepresentation": 0,
            "PixelSpacing": [
                3.0,
                3.0
            ],
            "ProtocolName": "cmrr_mbep2d_bold_Pictures_AP",
            "RepetitionTime": 610.0,
            "Rows": 384,
            "SAR": 0.34379942354607,
            "SamplesPerPixel": 1,
            "ScanOptions": "FS",
            "ScanningSequence": "EP",
            "SequenceName": "*epfid2d1_64",
            "SequenceVariant": "SK",
            "SeriesDescription": "cmrr_mbep2d_bold_Pictures_AP",
            "SeriesNumber": 7,
            "SeriesTime": "155950.523000",
            "SliceLocation": -99.454628366677,
            "SliceThickness": 3.0,
            "SmallestImagePixelValue": 0,
            "SoftwareVersions": "syngo MR E11",
            "SpacingBetweenSlices": 3.3000000071808,
            "SpecificCharacterSet": "ISO_IR 100",
            "StudyID": "2",
            "StudyTime": "153535.361000",
            "TransmitCoilName": "Body",
            "VariableFlipAngleFlag": "N",
            "WindowCenterWidthExplanation": "Algo1"
        },
        "slices": {}
    },
    "time": {
        "samples": {
            "AcquisitionNumber": [
                1,
                2,
                3,
                4,
                5,
                6,
                7,
                8,
                9,
                10,
                11,
                12,
                13,
                14,
                15,
                16,
                17,
                18,
                19,
                20,
                21,
                22,
                23,
                24,
                25,
                26,
                27,
                28,
                29,
                30,
                31,
                32,
                33,
                34,
                35,
                36,
                37,
                38,
                39,
                40,
                41,
                42,
                43,
                44,
                45,
                46,
                47,
                48,
                49,
                50,
                51,
                52,
                53,
                54,
                55,
                56,
                57,
                58,
                59,
                60,
                61,
                62,
                63,
                64,
                65,
                66,
                67,
                68,
                69,
                70,
                71,
                72,
                73,
                74,
                75,
                76,
                77,
                78,
                79,
                80,
                81,
                82,
                83,
                84,
                85,
                86,
                87,
                88,
                89,
                90,
                91,
                92,
                93,
                94,
                95,
                96,
                97,
                98,
                99,
                100,
                101,
                102,
                103,
                104,
                105,
                106,
                107,
                108,
                109,
                110,
                111,
                112,
                113,
                114,
                115,
                116,
                117,
                118,
                119,
                120,
                121,
                122,
                123,
                124,
                125,
                126,
                127,
                128,
                129,
                130,
                131,
                132,
                133,
                134,
                135,
                136,
                137,
                138,
                139,
                140,
                141,
                142,
                143,
                144,
                145,
                146,
                147,
                148,
                149,
                150,
                151,
                152,
                153,
                154,
                155,
                156,
                157,
                158,
                159,
                160,
                161,
                162,
                163,
                164,
                165,
                166,
                167,
                168,
                169,
                170,
                171,
                172,
                173,
                174,
                175,
                176,
                177,
                178,
                179,
                180,
                181,
                182,
                183,
                184,
                185,
                186,
                187,
                188,
                189,
                190,
                191,
                192,
                193,
                194,
                195,
                196,
                197,
                198,
                199,
                200,
                201,
                202,
                203,
                204,
                205,
                206,
                207,
                208,
                209,
                210,
                211,
                212,
                213,
                214,
                215,
                216,
                217,
                218,
                219,
                220,
                221,
                222,
                223,
                224,
                225,
                226,
                227,
                228,
                229,
                230,
                231,
                232,
                233,
                234,
                235,
                236,
                237,
                238,
                239,
                240,
                241,
                242,
                243,
                244,
                245,
                246,
                247,
                248,
                249,
                250,
                251,
                252,
                253,
                254,
                255,
                256,
                257,
                258,
                259,
                260,
                261,
                262,
                263,
                264,
                265,
                266,
                267,
                268,
                269,
                270,
                271,
                272,
                273,
                274,
                275,
                276,
                277,
                278,
                279,
                280,
                281,
                282,
                283,
                284,
                285,
                286,
                287,
                288,
                289,
                290,
                291,
                292,
                293,
                294,
                295,
                296,
                297,
                298,
                299,
                300,
                301,
                302,
                303,
                304,
                305,
                306,
                307,
                308,
                309,
                310,
                311,
                312,
                313,
                314,
                315,
                316,
                317,
                318,
                319,
                320,
                321,
                322,
                323,
                324,
                325,
                326,
                327,
                328,
                329,
                330,
                331,
                332,
                333,
                334,
                335,
                336,
                337,
                338,
                339,
                340,
                341,
                342,
                343,
                344,
                345,
                346,
                347,
                348,
                349,
                350,
                351,
                352,
                353,
                354,
                355,
                356,
                357,
                358,
                359,
                360,
                361,
                362,
                363,
                364,
                365,
                366,
                367,
                368,
                369,
                370,
                371,
                372,
                373,
                374,
                375,
                376,
                377,
                378,
                379,
                380,
                381,
                382,
                383,
                384,
                385,
                386,
                387,
                388,
                389,
                390,
                391,
                392,
                393,
                394,
                395,
                396,
                397,
                398,
                399,
                400,
                401,
                402,
                403,
                404,
                405,
                406,
                407,
                408,
                409,
                410,
                411,
                412,
                413,
                414,
                415,
                416,
                417,
                418,
                419,
                420,
                421,
                422,
                423,
                424,
                425,
                426,
                427,
                428,
                429,
                430,
                431,
                432,
                433,
                434,
                435,
                436,
                437,
                438,
                439,
                440,
                441,
                442,
                443,
                444,
                445,
                446,
                447,
                448,
                449,
                450,
                451,
                452,
                453,
                454,
                455,
                456,
                457,
                458,
                459,
                460,
                461,
                462,
                463,
                464,
                465,
                466,
                467,
                468,
                469,
                470,
                471,
                472,
                473,
                474,
                475,
                476,
                477,
                478,
                479,
                480,
                481,
                482,
                483,
                484,
                485,
                486,
                487,
                488,
                489,
                490,
                491,
                492,
                493,
                494,
                495,
                496,
                497,
                498,
                499,
                500,
                501,
                502,
                503,
                504,
                505,
                506,
                507,
                508,
                509,
                510
            ],
            "AcquisitionTime": [
                "155926.682500",
                "155927.292500",
                "155927.902500",
                "155928.512500",
                "155929.122500",
                "155929.732500",
                "155930.342500",
                "155930.952500",
                "155931.562500",
                "155932.172500",
                "155932.782500",
                "155933.392500",
                "155934.002500",
                "155934.612500",
                "155935.222500",
                "155935.832500",
                "155936.442500",
                "155937.052500",
                "155937.662500",
                "155938.272500",
                "155938.882500",
                "155939.492500",
                "155940.102500",
                "155940.712500",
                "155941.322500",
                "155941.932500",
                "155942.542500",
                "155943.152500",
                "155943.762500",
                "155944.372500",
                "155944.982500",
                "155945.592500",
                "155946.202500",
                "155946.812500",
                "155947.422500",
                "155948.032500",
                "155948.642500",
                "155949.252500",
                "155949.862500",
                "155950.472500",
                "155951.082500",
                "155951.692500",
                "155952.302500",
                "155952.912500",
                "155953.522500",
                "155954.132500",
                "155954.742500",
                "155955.352500",
                "155955.962500",
                "155956.572500",
                "155957.182500",
                "155957.792500",
                "155958.402500",
                "155959.012500",
                "155959.622500",
                "160000.232500",
                "160000.842500",
                "160001.452500",
                "160002.062500",
                "160002.672500",
                "160003.282500",
                "160003.892500",
                "160004.502500",
                "160005.112500",
                "160005.722500",
                "160006.332500",
                "160006.942500",
                "160007.552500",
                "160008.162500",
                "160008.772500",
                "160009.382500",
                "160009.992500",
                "160010.602500",
                "160011.212500",
                "160011.822500",
                "160012.432500",
                "160013.042500",
                "160013.652500",
                "160014.262500",
                "160014.872500",
                "160015.482500",
                "160016.092500",
                "160016.702500",
                "160017.312500",
                "160017.922500",
                "160018.532500",
                "160019.142500",
                "160019.752500",
                "160020.362500",
                "160020.972500",
                "160021.582500",
                "160022.192500",
                "160022.802500",
                "160023.412500",
                "160024.022500",
                "160024.632500",
                "160025.242500",
                "160025.852500",
                "160026.462500",
                "160027.072500",
                "160027.682500",
                "160028.292500",
                "160028.902500",
                "160029.512500",
                "160030.122500",
                "160030.732500",
                "160031.342500",
                "160031.952500",
                "160032.562500",
                "160033.172500",
                "160033.782500",
                "160034.392500",
                "160035.002500",
                "160035.612500",
                "160036.222500",
                "160036.832500",
                "160037.442500",
                "160038.052500",
                "160038.662500",
                "160039.272500",
                "160039.882500",
                "160040.492500",
                "160041.102500",
                "160041.712500",
                "160042.322500",
                "160042.932500",
                "160043.542500",
                "160044.152500",
                "160044.762500",
                "160045.372500",
                "160045.982500",
                "160046.592500",
                "160047.202500",
                "160047.812500",
                "160048.422500",
                "160049.032500",
                "160049.642500",
                "160050.252500",
                "160050.862500",
                "160051.472500",
                "160052.082500",
                "160052.692500",
                "160053.302500",
                "160053.912500",
                "160054.522500",
                "160055.132500",
                "160055.742500",
                "160056.352500",
                "160056.962500",
                "160057.572500",
                "160058.182500",
                "160058.792500",
                "160059.402500",
                "160100.012500",
                "160100.622500",
                "160101.232500",
                "160101.842500",
                "160102.452500",
                "160103.062500",
                "160103.672500",
                "160104.282500",
                "160104.892500",
                "160105.502500",
                "160106.112500",
                "160106.722500",
                "160107.332500",
                "160107.942500",
                "160108.552500",
                "160109.162500",
                "160109.772500",
                "160110.382500",
                "160110.992500",
                "160111.602500",
                "160112.212500",
                "160112.822500",
                "160113.432500",
                "160114.042500",
                "160114.652500",
                "160115.262500",
                "160115.872500",
                "160116.482500",
                "160117.092500",
                "160117.702500",
                "160118.312500",
                "160118.922500",
                "160119.532500",
                "160120.142500",
                "160120.752500",
                "160121.362500",
                "160121.972500",
                "160122.582500",
                "160123.192500",
                "160123.802500",
                "160124.412500",
                "160125.022500",
                "160125.632500",
                "160126.242500",
                "160126.852500",
                "160127.462500",
                "160128.072500",
                "160128.682500",
                "160129.292500",
                "160129.902500",
                "160130.512500",
                "160131.122500",
                "160131.732500",
                "160132.342500",
                "160132.952500",
                "160133.562500",
                "160134.172500",
                "160134.782500",
                "160135.392500",
                "160136.002500",
                "160136.612500",
                "160137.222500",
                "160137.832500",
                "160138.442500",
                "160139.052500",
                "160139.662500",
                "160140.272500",
                "160140.882500",
                "160141.492500",
                "160142.102500",
                "160142.712500",
                "160143.322500",
                "160143.932500",
                "160144.542500",
                "160145.152500",
                "160145.762500",
                "160146.372500",
                "160146.982500",
                "160147.592500",
                "160148.202500",
                "160148.812500",
                "160149.422500",
                "160150.032500",
                "160150.642500",
                "160151.252500",
                "160151.862500",
                "160152.472500",
                "160153.082500",
                "160153.692500",
                "160154.302500",
                "160154.912500",
                "160155.522500",
                "160156.132500",
                "160156.742500",
                "160157.352500",
                "160157.962500",
                "160158.572500",
                "160159.182500",
                "160159.792500",
                "160200.402500",
                "160201.012500",
                "160201.622500",
                "160202.232500",
                "160202.842500",
                "160203.452500",
                "160204.062500",
                "160204.672500",
                "160205.282500",
                "160205.892500",
                "160206.502500",
                "160207.112500",
                "160207.722500",
                "160208.332500",
                "160208.942500",
                "160209.552500",
                "160210.162500",
                "160210.772500",
                "160211.382500",
                "160211.992500",
                "160212.602500",
                "160213.212500",
                "160213.822500",
                "160214.432500",
                "160215.042500",
                "160215.652500",
                "160216.262500",
                "160216.872500",
                "160217.482500",
                "160218.092500",
                "160218.702500",
                "160219.312500",
                "160219.922500",
                "160220.532500",
                "160221.142500",
                "160221.752500",
                "160222.362500",
                "160222.972500",
                "160223.582500",
                "160224.192500",
                "160224.802500",
                "160225.412500",
                "160226.022500",
                "160226.632500",
                "160227.242500",
                "160227.852500",
                "160228.462500",
                "160229.072500",
                "160229.682500",
                "160230.292500",
                "160230.902500",
                "160231.512500",
                "160232.122500",
                "160232.732500",
                "160233.342500",
                "160233.952500",
                "160234.562500",
                "160235.172500",
                "160235.782500",
                "160236.392500",
                "160237.002500",
                "160237.612500",
                "160238.222500",
                "160238.832500",
                "160239.442500",
                "160240.052500",
                "160240.662500",
                "160241.272500",
                "160241.882500",
                "160242.492500",
                "160243.102500",
                "160243.712500",
                "160244.322500",
                "160244.932500",
                "160245.542500",
                "160246.152500",
                "160246.762500",
                "160247.372500",
                "160247.982500",
                "160248.592500",
                "160249.202500",
                "160249.812500",
                "160250.422500",
                "160251.032500",
                "160251.642500",
                "160252.252500",
                "160252.862500",
                "160253.472500",
                "160254.082500",
                "160254.692500",
                "160255.302500",
                "160255.912500",
                "160256.522500",
                "160257.132500",
                "160257.742500",
                "160258.352500",
                "160258.962500",
                "160259.572500",
                "160300.182500",
                "160300.792500",
                "160301.402500",
                "160302.012500",
                "160302.622500",
                "160303.232500",
                "160303.842500",
                "160304.452500",
                "160305.062500",
                "160305.672500",
                "160306.282500",
                "160306.892500",
                "160307.502500",
                "160308.112500",
                "160308.722500",
                "160309.332500",
                "160309.942500",
                "160310.552500",
                "160311.162500",
                "160311.772500",
                "160312.382500",
