{"AcquisitionMatrixPE": 64, "AcquisitionNumber": 1, "AcquisitionTime": "12:27:18.720000", "BandwidthPerPixelPhaseEncode": 28.935, "BaseResolution": 64, "BodyPartExamined": "BRAIN", "CoilString": "HC2_4_6_7;SC", "ConsistencyInfo": "N4_VE11E_LATEST_20181129", "ConversionSoftware": "dcm2niix", "ConversionSoftwareVersion": "v1.0.20190902", "DerivedVendorReportedEchoSpacing": 0.000540003, "DeviceSerialNumber": "166182", "DwellTime": 3.4e-06, "EchoTime": 0.032, "EchoTrainLength": 64, "EffectiveEchoSpacing": 0.000540003, "FlipAngle": 40, "ImageOrientationPatientDICOM": [0.998846, 0.0387594, -0.0283668, -0.0374989, 0.998341, 0.0436927], "ImageType": ["ORIGINAL", "PRIMARY", "M", "ND", "NORM", "MOSAIC"], "ImagingFrequency": 123.256, "InPlanePhaseEncodingDirectionDICOM": "COL", "InstitutionAddress": "PEARSE_STREET_._City_District_IE_D2", "InstitutionName": "TCIN", "InstitutionalDepartmentName": "MRI", "MRAcquisitionType": "2D", "MagneticFieldStrength": 3, "Manufacturer": "Siemens", "ManufacturersModelName": "Prisma", "Modality": "MR", "MultibandAccelerationFactor": 4, "PartialFourier": 1, "PatientPosition": "HFS", "PercentPhaseFOV": 100, "PhaseEncodingDirection": "j-", "PhaseEncodingSteps": 64, "PhaseResolution": 1, "PixelBandwidth": 2300, "ProcedureStepDescription": "Rhodri_Head_BOLD", "ProtocolName": "cmrr_mbep2d_Pictures_AP_RDS", "PulseSequenceDetails": "%SiemensSeq%_ep2d_bold", "ReceiveCoilActiveElements": "HC2,4,6,7;SC", "ReceiveCoilName": "SpecialPurpose_4", "ReconMatrixPE": 64, "RefLinesPE": 12, "RepetitionTime": 0.61, "SAR": 0.253461, "ScanOptions": "FS", "ScanningSequence": "EP", "SequenceName": "_epfid2d1_64", "SequenceVariant": "SK", "SeriesDescription": "cmrr_mbep2d_Pictures_AP_RDS", "SeriesNumber": 12, "ShimSetting": [-3621, -7463, 3777, 897, -126, 102, 293, -18], "SliceThickness": 3, "SliceTiming": [0.2625, 0, 0.3275, 0.065, 0.3925, 0.13, 0.4575, 0.1975, 0.525, 0.2625, 0, 0.3275, 0.065, 0.3925, 0.13, 0.4575, 0.1975, 0.525, 0.2625, 0, 0.3275, 0.065, 0.3925, 0.13, 0.4575, 0.1975, 0.525, 0.2625, 0, 0.3275, 0.065, 0.3925, 0.13, 0.4575, 0.1975, 0.525], "SoftwareVersions": "syngo_MR_E11", "SpacingBetweenSlices": 3.3, "StationName": "AWP166182", "TaskName": "pictures", "TotalReadoutTime": 0.0340202, "TxRefAmp": 235.878, "dcmmeta_affine": [[-2.996537446975708, -0.11249680817127228, -0.09904371201992035, 101.38531494140625], [-0.11627813428640366, 2.995023012161255, 0.14050906896591187, -95.18009185791016], [-0.08510041981935501, -0.13107797503471375, 3.2955191135406494, -90.5598373413086], [0.0, 0.0, 0.0, 1.0]], "dcmmeta_reorient_transform": [[0.0, -1.0, 0.0, 63.0], [1.0, 0.0, 0.0, 0.0], [0.0, 0.0, 1.0, 0.0], [0.0, 0.0, 0.0, 1.0]], "dcmmeta_shape": [64, 64, 36, 510], "dcmmeta_slice_dim": 2, "dcmmeta_version": 0.6, "global": {"const": {"AcquisitionMatrix": [64, 0, 0, 64], "AngioFlag": "N", "BitsAllocated": 16, "BitsStored": 12, "BodyPartExamined": "BRAIN", "Columns": 384, "EchoNumbers": 1, "EchoTime": 32.0, "EchoTrainLength": 64, "FlipAngle": 40.0, "HighBit": 11, "ImageOrientationPatient": [0.99884585140594, 0.0387593781141, -0.0283668069644, -0.0374989350068, 0.99834101461807, 0.04369265847626], "ImagePositionPatient": [-555.74453256137, -591.31454886617, -106.17415653528], "ImageType": ["ORIGINAL", "PRIMARY", "M", "ND", "NORM", "MOSAIC"], "ImagedNucleus": "1H", "ImagingFrequency": 123.256492, "InPlanePhaseEncodingDirection": "COL", "MRAcquisitionType": "2D", "MagneticFieldStrength": 3.0, "Manufacturer": "SIEMENS", "ManufacturerModelName": "Prisma", "Modality": "MR", "NumberOfAverages": 1.0, "NumberOfPhaseEncodingSteps": 64, "PercentPhaseFieldOfView": 100.0, "PercentSampling": 100.0, "PerformedProcedureStepStartTime": "120803.670000", "PhotometricInterpretation": "MONOCHROME2", "PixelBandwidth": 2300.0, "PixelRepresentation": 0, "PixelSpacing": [3.0, 3.0], "ProtocolName": "cmrr_mbep2d_Pictures_AP_RDS", "RepetitionTime": 610.0, "Rows": 384, "SAR": 0.2534608890979, "SamplesPerPixel": 1, "ScanOptions": "FS", "ScanningSequence": "EP", "SequenceName": "*epfid2d1_64", "SequenceVariant": "SK", "SeriesDescription": "cmrr_mbep2d_Pictures_AP_RDS", "SeriesNumber": 12, "SeriesTime": "122739.605000", "SliceLocation": -97.532403135594, "SliceThickness": 3.0, "SmallestImagePixelValue": 0, "SoftwareVersions": "syngo MR E11", "SpacingBetweenSlices": 3.2999998890103, "SpecificCharacterSet": "ISO_IR 100", "StudyID": "1", "StudyTime": "120803.417000", "TransmitCoilName": "Body", "VariableFlipAngleFlag": "N", "WindowCenterWidthExplanation": "Algo1"}, "slices": {}}, "time": {"samples": {"AcquisitionNumber": [1, 2, 3, 4, 5, 6, 7, 8, 9, 10, 11, 12, 13, 14, 15, 16, 17, 18, 19, 20, 21, 22, 23, 24, 25, 26, 27, 28, 29, 30, 31, 32, 33, 34, 35, 36, 37, 38, 39, 40, 41, 42, 43, 44, 45, 46, 47, 48, 49, 50, 51, 52, 53, 54, 55, 56, 57, 58, 59, 60, 61, 62, 63, 64, 65, 66, 67, 68, 69, 70, 71, 72, 73, 74, 75, 76, 77, 78, 79, 80, 81, 82, 83, 84, 85, 86, 87, 88, 89, 90, 91, 92, 93, 94, 95, 96, 97, 98, 99, 100, 101, 102, 103, 104, 105, 106, 107, 108, 109, 110, 111, 112, 113, 114, 115, 116, 117, 118, 119, 120, 121, 122, 123, 124, 125, 126, 127, 128, 129, 130, 131, 132, 133, 134, 135, 136, 137, 138, 139, 140, 141, 142, 143, 144, 145, 146, 147, 148, 149, 150, 151, 152, 153, 154, 155, 156, 157, 158, 159, 160, 161, 162, 163, 164, 165, 166, 167, 168, 169, 170, 171, 172, 173, 174, 175, 176, 177, 178, 179, 180, 181, 182, 183, 184, 185, 186, 187, 188, 189, 190, 191, 192, 193, 194, 195, 196, 197, 198, 199, 200, 201, 202, 203, 204, 205, 206, 207, 208, 209, 210, 211, 212, 213, 214, 215, 216, 217, 218, 219, 220, 221, 222, 223, 224, 225, 226, 227, 228, 229, 230, 231, 232, 233, 234, 235, 236, 237, 238, 239, 240, 241, 242, 243, 244, 245, 246, 247, 248, 249, 250, 251, 252, 253, 254, 255, 256, 257, 258, 259, 260, 261, 262, 263, 264, 265, 266, 267, 268, 269, 270, 271, 272, 273, 274, 275, 276, 277, 278, 279, 280, 281, 282, 283, 284, 285, 286, 287, 288, 289, 290, 291, 292, 293, 294, 295, 296, 297, 298, 299, 300, 301, 302, 303, 304, 305, 306, 307, 308, 309, 310, 311, 312, 313, 314, 315, 316, 317, 318, 319, 320, 321, 322, 323, 324, 325, 326, 327, 328, 329, 330, 331, 332, 333, 334, 335, 336, 337, 338, 339, 340, 341, 342, 343, 344, 345, 346, 347, 348, 349, 350, 351, 352, 353, 354, 355, 356, 357, 358, 359, 360, 361, 362, 363, 364, 365, 366, 367, 368, 369, 370, 371, 372, 373, 374, 375, 376, 377, 378, 379, 380, 381, 382, 383, 384, 385, 386, 387, 388, 389, 390, 391, 392, 393, 394, 395, 396, 397, 398, 399, 400, 401, 402, 403, 404, 405, 406, 407, 408, 409, 410, 411, 412, 413, 414, 415, 416, 417, 418, 419, 420, 421, 422, 423, 424, 425, 426, 427, 428, 429, 430, 431, 432, 433, 434, 435, 436, 437, 438, 439, 440, 441, 442, 443, 444, 445, 446, 447, 448, 449, 450, 451, 452, 453, 454, 455, 456, 457, 458, 459, 460, 461, 462, 463, 464, 465, 466, 467, 468, 469, 470, 471, 472, 473, 474, 475, 476, 477, 478, 479, 480, 481, 482, 483, 484, 485, 486, 487, 488, 489, 490, 491, 492, 493, 494, 495, 496, 497, 498, 499, 500, 501, 502, 503, 504, 505, 506, 507, 508, 509, 510], "AcquisitionTime": ["122718.720000", "122719.330000", "122719.940000", "122720.550000", "122721.160000", "122721.770000", "122722.380000", "122722.990000", "122723.600000", "122724.210000", "122724.820000", "122725.430000", "122726.040000", "122726.650000", "122727.260000", "122727.870000", "122728.480000", "122729.090000", "122729.700000", "122730.310000", "122730.920000", "122731.530000", "122732.140000", "122732.750000", "122733.360000", "122733.970000", "122734.580000", "122735.190000", "122735.800000", "122736.410000", "122737.020000", "122737.630000", "122738.240000", "122738.850000", "122739.460000", "122740.070000", "122740.680000", "122741.290000", "122741.900000", "122742.510000", "122743.120000", "122743.730000", "122744.340000", "122744.950000", "122745.560000", "122746.170000", "122746.780000", "122747.390000", "122748.000000", "122748.610000", "122749.220000", "122749.830000", "122750.440000", "122751.050000", "122751.660000", "122752.270000", "122752.880000", "122753.490000", "122754.100000", "122754.710000", "122755.320000", "122755.930000", "122756.540000", "122757.150000", "122757.760000", "122758.370000", "122758.980000", "122759.590000", "122800.200000", "122800.810000", "122801.420000", "122802.030000", "122802.640000", "122803.250000", "122803.860000", "122804.470000", "122805.080000", "122805.690000", "122806.300000", "122806.910000", "122807.520000", "122808.130000", "122808.740000", "122809.350000", "122809.960000", "122810.570000", "122811.180000", "122811.790000", "122812.400000", "122813.010000", "122813.620000", "122814.230000", "122814.840000", "122815.450000", "122816.060000", "122816.670000", "122817.280000", "122817.890000", "122818.500000", "122819.110000", "122819.720000", "122820.330000", "122820.940000", "122821.550000", "122822.160000", "122822.770000", "122823.380000", "122823.990000", "122824.600000", "122825.210000", "122825.820000", "122826.430000", "122827.040000", "122827.650000", "122828.260000", "122828.870000", "122829.480000", "122830.090000", "122830.700000", "122831.310000", "122831.920000", "122832.530000", "122833.140000", "122833.750000", "122834.360000", "122834.970000", "122835.580000", "122836.190000", "122836.800000", "122837.410000", "122838.020000", "122838.630000", "122839.240000", "122839.850000", "122840.460000", "122841.070000", "122841.680000", "122842.290000", "122842.900000", "122843.510000", "122844.120000", "122844.730000", "122845.340000", "122845.950000", "122846.560000", "122847.170000", "122847.780000", "122848.390000", "122849.000000", "122849.610000", "122850.220000", "122850.830000", "122851.440000", "122852.050000", "122852.660000", "122853.270000", "122853.880000", "122854.490000", "122855.100000", "122855.710000", "122856.320000", "122856.930000", "122857.540000", "122858.150000", "122858.760000", "122859.370000", "122859.980000", "122900.590000", "122901.200000", "122901.810000", "122902.420000", "122903.030000", "122903.640000", "122904.250000", "122904.860000", "122905.470000", "122906.080000", "122906.690000", "122907.300000", "122907.910000", "122908.520000", "122909.130000", "122909.740000", "122910.350000", "122910.960000", "122911.570000", "122912.180000", "122912.790000", "122913.400000", "122914.010000", "122914.620000", "122915.230000", "122915.840000", "122916.450000", "122917.060000", "122917.670000", "122918.280000", "122918.890000", "122919.500000", "122920.110000", "122920.720000", "122921.330000", "122921.940000", "122922.550000", "122923.160000", "122923.770000", "122924.380000", "122924.990000", "122925.600000", "122926.210000", "122926.820000", "122927.430000", "122928.040000", "122928.650000", "122929.260000", "122929.870000", "122930.480000", "122931.090000", "122931.700000", "122932.310000", "122932.920000", "122933.530000", "122934.140000", "122934.750000", "122935.360000", "122935.970000", "122936.580000", "122937.190000", "122937.800000", "122938.410000", "122939.020000", "122939.630000", "122940.240000", "122940.850000", "122941.460000", "122942.070000", "122942.680000", "122943.290000", "122943.900000", "122944.510000", "122945.120000", "122945.730000", "122946.340000", "122946.950000", "122947.560000", "122948.170000", "122948.780000", "122949.390000", "122950.000000", "122950.610000", "122951.220000", "122951.830000", "122952.440000", "122953.050000", "122953.660000", "122954.270000", "122954.880000", "122955.490000", "122956.100000", "122956.710000", "122957.320000", "122957.930000", "122958.540000", "122959.150000", "122959.760000", "123000.370000", "123000.980000", "123001.590000", "123002.200000", "123002.810000", "123003.420000", "123004.030000", "123004.640000", "123005.250000", "123005.860000", "123006.470000", "123007.080000", "123007.690000", "123008.300000", "123008.910000", "123009.520000", "123010.130000", "123010.740000", "123011.350000", "123011.960000", "123012.570000", "123013.180000", "123013.790000", "123014.400000", "123015.010000", "123015.620000", "123016.230000", "123016.840000", "123017.450000", "123018.060000", "123018.670000", "123019.280000", "123019.890000", "123020.500000", "123021.110000", "123021.720000", "123022.330000", "123022.940000", "123023.550000", "123024.160000", "123024.770000", "123025.380000", "123025.990000", "123026.600000", "123027.210000", "123027.820000", "123028.430000", "123029.040000", "123029.650000", "123030.260000", "123030.870000", "123031.480000", "123032.090000", "123032.700000", "123033.310000", "123033.920000", "123034.530000", "123035.140000", "123035.750000", "123036.360000", "123036.970000", "123037.580000", "123038.190000", "123038.800000", "123039.410000", "123040.020000", "123040.630000", "123041.240000", "123041.850000", "123042.460000", "123043.070000", "123043.680000", "123044.290000", "123044.900000", "123045.510000", "123046.120000", "123046.730000", "123047.340000", "123047.950000", "123048.560000", "123049.170000", "123049.780000", "123050.390000", "123051.000000", "123051.610000", "123052.220000", "123052.830000", "123053.440000", "123054.050000", "123054.660000", "123055.270000", "123055.880000", "123056.490000", "123057.100000", "123057.710000", "123058.320000", "123058.930000", "123059.540000", "123100.150000", "123100.760000", "123101.370000", "123101.980000", "123102.590000", "123103.200000", "123103.810000", "123104.420000", "123105.030000", "123105.640000", "123106.250000", "123106.860000", "123107.470000", "123108.080000", "123108.690000", "123109.300000", "123109.910000", "123110.520000", "123111.130000", "123111.740000", "123112.350000", "123112.960000", "123113.570000", "123114.180000", "123114.790000", "123115.400000", "123116.010000", "123116.620000", "123117.230000", "123117.840000", "123118.450000", "123119.060000", "123119.670000", "123120.280000", "123120.890000", "123121.500000", "123122.110000", "123122.720000", "123123.330000", "123123.940000", "123124.550000", "123125.160000", "123125.770000", "123126.380000", "123126.990000", "123127.600000", "123128.210000", "123128.820000", "123129.430000", "123130.040000", "123130.650000", "123131.260000", "123131.870000", "123132.480000", "123133.090000", "123133.700000", "123134.310000", "123134.920000", "123135.530000", "123136.140000", "123136.750000", "123137.360000", "123137.970000", "123138.580000", "123139.190000", "123139.800000", "123140.410000", "123141.020000", "123141.630000", "123142.240000", "123142.850000", "123143.460000", "123144.070000", "123144.680000", "123145.290000", "123145.900000", "123146.510000", "123147.120000", "123147.730000", "123148.340000", "123148.950000", "123149.560000", "123150.170000", "123150.780000", "123151.390000", "123152.000000", "123152.610000", "123153.220000", "123153.830000", "123154.440000", "123155.050000", "123155.660000", "123156.270000", "123156.880000", "123157.490000", "123158.100000", "123158.710000", "123159.320000", "123159.930000", "123200.540000", "123201.150000", "123201.760000", "123202.370000", "123202.980000", "123203.590000", "123204.200000", "123204.810000", "123205.420000", "123206.030000", "123206.640000", "123207.250000", "123207.860000", "123208.470000", "123209.080000", "123209.690000", "123210.300000", "123210.910000", "123211.520000", "123212.130000", "123212.740000", "123213.350000", "123213.960000", "123214.570000", "123215.180000", "123215.790000", "123216.400000", "123217.010000", "123217.620000", "123218.230000", "123218.840000", "123219.450000", "123220.060000", "123220.670000", "123221.280000", "123221.890000", "123222.500000", "123223.110000", "123223.720000", "123224.330000", "123224.940000", "123225.550000", "123226.160000", "123226.770000", "123227.380000", "123227.990000", "123228.600000", "123229.210000"], "ContentTime": ["122739.609000", "122739.612000", "122739.615000", "122739.617000", "122739.619000", "122739.622000", "122739.624000", "122739.626000", "122739.629000", "122739.631000", "122739.634000", "122739.636000", "122739.638000", "122739.641000", "122739.643000", "122739.646000", "122739.648000", "122739.652000", "122739.655000", "122739.657000", "122739.660000", "122739.662000", "122739.664000", "122739.667000", "122739.669000", "122739.671000", "122739.674000", "122739.676000", "122739.679000", "122739.681000", "122739.683000", "122739.686000", "122739.688000", "122739.691000", "122759.605000", "122759.608000", "122759.610000", "122759.613000", "122759.616000", "122759.652000", "122759.654000", "122759.656000", "122759.659000", "122759.661000", "122759.664000", "122759.666000", "122759.668000", "122759.671000", "122759.673000", "122759.676000", "122759.678000", "122759.685000", "122759.688000", "122759.690000", "122759.693000", "122759.695000", "122759.697000", "122759.700000", "122759.702000", "122759.705000", "122759.707000", "122759.710000", "122759.717000", "122759.719000", "122759.722000", "122759.724000", "122819.605000", "122819.608000", "122819.610000", "122819.613000", "122819.615000", "122819.618000", "122819.620000", "122819.623000", "122819.625000", "122819.627000", "122819.630000", "122819.632000", "122819.635000", "122819.637000", "122819.639000", "122819.642000", "122819.644000", "122819.646000", "122819.649000", "122819.651000", "122819.654000", "122819.656000", "122819.658000", "122819.661000", "122819.663000", "122819.666000", "122819.668000", "122819.670000", "122819.673000", "122819.675000", "122819.678000", "122819.680000", "122819.682000", "122839.604000", "122839.607000", "122839.609000", "122839.612000", "122839.614000", "122839.617000", "122839.619000", "122839.621000", "122839.624000", "122839.626000", "122839.628000", "122839.631000", "122839.633000", "122839.636000", "122839.638000", "122839.640000", "122839.643000", "122839.645000", "122839.648000", "122839.650000", "122839.652000", "122839.655000", "122839.657000", "122839.660000", "122839.662000", "122839.664000", "122839.667000", "122839.669000", "122839.671000", "122839.674000", "122839.676000", "122839.679000", "122839.681000", "122859.604000", "122859.607000", "122859.609000", "122859.612000", "122859.614000", "122859.617000", "122859.619000", "122859.621000", "122859.624000", "122859.626000", "122859.628000", "122859.631000", "122859.633000", "122859.635000", "122859.638000", "122859.640000", "122859.643000", "122859.645000", "122859.647000", "122859.650000", "122859.652000", "122859.655000", "122859.657000", "122859.659000", "122859.662000", "122859.664000", "122859.667000", "122859.669000", "122859.671000", "122859.674000", "122859.676000", "122859.678000", "122859.681000", "122919.604000", "122919.609000", "122919.612000", "122919.614000", "122919.617000", "122919.619000", "122919.621000", "122919.624000", "122919.626000", "122919.628000", "122919.631000", "122919.633000", "122919.636000", "122919.638000", "122919.641000", "122919.643000", "122919.645000", "122919.648000", "122919.650000", "122919.652000", "122919.655000", "122919.657000", "122919.660000", "122919.662000", "122919.664000", "122919.667000", "122919.669000", "122919.671000", "122919.674000", "122919.676000", "122919.679000", "122919.681000", "122919.683000", "122939.604000", "122939.607000", "122939.609000", "122939.612000", "122939.614000", "122939.616000", "122939.619000", "122939.621000", "122939.624000", "122939.626000", "122939.628000", "122939.639000", "122939.642000", "122939.644000", "122939.647000", "122939.649000", "122939.651000", "122939.654000", "122939.656000", "122939.659000", "122939.662000", "122939.664000", "122939.667000", "122939.669000", "122939.672000", "122939.674000", "122939.676000", "122939.679000", "122939.681000", "122939.684000", "122939.686000", "122939.689000", "122959.604000", "122959.609000", "122959.611000", "122959.614000", "122959.616000", "122959.619000", "122959.621000", "122959.624000", "122959.626000", "122959.628000", "122959.631000", "122959.634000", "122959.636000", "122959.638000", "122959.641000", "122959.643000", "122959.646000", "122959.648000", "122959.650000", "122959.653000", "122959.655000", "122959.658000", "122959.660000", "122959.663000", "122959.665000", "122959.667000", "122959.670000", "122959.672000", "122959.675000", "122959.677000", "122959.679000", "122959.682000", "122959.684000", "123019.605000", "123019.608000", "123019.610000", "123019.612000", "123019.615000", "123019.617000", "123019.620000", "123019.622000", "123019.625000", "123019.627000", "123019.629000", "123019.632000", "123019.634000", "123019.637000", "123019.639000", "123019.641000", "123019.644000", "123019.646000", "123019.649000", "123019.651000", "123019.654000", "123019.656000", "123019.658000", "123019.661000", "123019.663000", "123019.666000", "123019.668000", "123019.670000", "123019.673000", "123019.675000", "123019.678000", "123019.680000", "123019.683000", "123039.605000", "123039.608000", "123039.610000", "123039.613000", "123039.615000", "123039.618000", "123039.620000", "123039.622000", "123039.625000", "123039.627000", "123039.630000", "123039.632000", "123039.634000", "123039.637000", "123039.639000", "123039.642000", "123039.644000", "123039.647000", "123039.649000", "123039.651000", "123039.654000", "123039.656000", "123039.658000", "123039.661000", "123039.663000", "123039.666000", "123039.668000", "123039.670000", "123039.673000", "123039.675000", "123039.678000", "123039.680000", "123039.682000", "123059.604000", "123059.607000", "123059.609000", "123059.612000", "123059.614000", "123059.617000", "123059.619000", "123059.621000", "123059.624000", "123059.626000", "123059.629000", "123059.631000", "123059.633000", "123059.636000", "123059.638000", "123059.641000", "123059.643000", "123059.645000", "123059.648000", "123059.650000", "123059.653000", "123059.655000", "123059.658000", "123059.660000", "123059.662000", "123059.665000", "123059.667000", "123059.669000", "123059.672000", "123059.674000", "123059.677000", "123059.679000", "123059.681000", "123119.605000", "123119.608000", "123119.610000", "123119.612000", "123119.615000", "123119.617000", "123119.620000", "123119.622000", "123119.625000", "123119.627000", "123119.629000", "123119.632000", "123119.634000", "123119.637000", "123119.639000", "123119.641000", "123119.644000", "123119.646000", "123119.649000", "123119.651000", "123119.653000", "123119.656000", "123119.658000", "123119.661000", "123119.663000", "123119.666000", "123119.668000", "123119.670000", "123119.673000", "123119.675000", "123119.678000", "123119.680000", "123139.604000", "123139.607000", "123139.609000", "123139.612000", "123139.614000", "123139.617000", "123139.619000", "123139.622000", "123139.624000", "123139.626000", "123139.629000", "123139.634000", "123139.637000", "123139.639000", "123139.641000", "123139.644000", "123139.646000", "123139.649000", "123139.651000", "123139.654000", "123139.656000", "123139.659000", "123139.661000", "123139.663000", "123139.666000", "123139.668000", "123139.671000", "123139.674000", "123139.676000", "123139.679000", "123139.681000", "123139.684000", "123139.686000", "123159.604000", "123159.607000", "123159.609000", "123159.612000", "123159.614000", "123159.617000", "123159.619000", "123159.621000", "123159.624000", "123159.626000", "123159.629000", "123159.631000", "123159.634000", "123159.636000", "123159.638000", "123159.641000", "123159.643000", "123159.646000", "123159.648000", "123159.650000", "123159.653000", "123159.655000", "123159.657000", "123159.660000", "123159.662000", "123159.665000", "123159.667000", "123159.669000", "123159.672000", "123159.674000", "123159.677000", "123159.679000", "123159.682000", "123219.604000", "123219.607000", "123219.610000", "123219.612000", "123219.615000", "123219.617000", "123219.620000", "123219.622000", "123219.624000", "123219.627000", "123219.629000", "123219.631000", "123219.634000", "123219.636000", "123219.639000", "123219.641000", "123219.644000", "123219.646000", "123219.648000", "123219.654000", "123219.656000", "123219.659000", "123219.661000", "123219.663000", "123219.666000", "123219.668000", "123219.670000", "123219.673000", "123219.675000", "123219.678000", "123219.680000", "123219.682000", "123219.685000", "123229.827000", "123229.829000", "123229.832000", "123229.834000", "123229.837000", "123229.839000", "123229.841000", "123229.844000", "123229.846000", "123229.849000", "123229.851000", "123229.854000", "123229.856000", "123229.858000", "123229.861000", "123229.863000", "123229.866000"], "InstanceCreationTime": ["122739.609000", "122739.612000", "122739.615000", "122739.617000", "122739.619000", "122739.622000", "122739.624000", "122739.626000", "122739.629000", "122739.631000", "122739.634000", "122739.636000", "122739.638000", "122739.641000", "122739.643000", "122739.646000", "122739.648000", "122739.652000", "122739.655000", "122739.657000", "122739.660000", "122739.662000", "122739.664000", "122739.667000", "122739.669000", "122739.671000", "122739.674000", "122739.676000", "122739.679000", "122739.681000", "122739.683000", "122739.686000", "122739.688000", "122739.691000", "122759.605000", "122759.608000", "122759.610000", "122759.613000", "122759.616000", "122759.652000", "122759.654000", "122759.656000", "122759.659000", "122759.661000", "122759.664000", "122759.666000", "122759.668000", "122759.671000", "122759.673000", "122759.676000", "122759.678000", "122759.685000", "122759.688000", "122759.690000", "122759.693000", "122759.695000", "122759.697000", "122759.700000", "122759.702000", "122759.705000", "122759.707000", "122759.710000", "122759.717000", "122759.719000", "122759.722000", "122759.724000", "122819.605000", "122819.608000", "122819.610000", "122819.613000", "122819.615000", "122819.618000", "122819.620000", "122819.623000", "122819.625000", "122819.627000", "122819.630000", "122819.632000", "122819.635000", "122819.637000", "122819.639000", "122819.642000", "122819.644000", "122819.646000", "122819.649000", "122819.651000", "122819.654000", "122819.656000", "122819.658000", "122819.661000", "122819.663000", "122819.666000", "122819.668000", "122819.670000", "122819.673000", "122819.675000", "122819.678000", "122819.680000", "122819.682000", "122839.604000", "122839.607000", "122839.609000", "122839.612000", "122839.614000", "122839.617000", "122839.619000", "122839.621000", "122839.624000", "122839.626000", "122839.628000", "122839.631000", "122839.633000", "122839.636000", "122839.638000", "122839.640000", "122839.643000", "122839.645000", "122839.648000", "122839.650000", "122839.652000", "122839.655000", "122839.657000", "122839.660000", "122839.662000", "122839.664000", "122839.667000", "122839.669000", "122839.671000", "122839.674000", "122839.676000", "122839.679000", "122839.681000", "122859.604000", "122859.607000", "122859.609000", "122859.612000", "122859.614000", "122859.617000", "122859.619000", "122859.621000", "122859.624000", "122859.626000", "122859.628000", "122859.631000", "122859.633000", "122859.635000", "122859.638000", "122859.640000", "122859.643000", "122859.645000", "122859.647000", "122859.650000", "122859.652000", "122859.655000", "122859.657000", "122859.659000", "122859.662000", "122859.664000", "122859.667000", "122859.669000", "122859.671000", "122859.674000", "122859.676000", "122859.678000", "122859.681000", "122919.604000", "122919.609000", "122919.612000", "122919.614000", "122919.617000", "122919.619000", "122919.621000", "122919.624000", "122919.626000", "122919.628000", "122919.631000", "122919.633000", "122919.636000", "122919.638000", "122919.641000", "122919.643000", "122919.645000", "122919.648000", "122919.650000", "122919.652000", "122919.655000", "122919.657000", "122919.660000", "122919.662000", "122919.664000", "122919.667000", "122919.669000", "122919.671000", "122919.674000", "122919.676000", "122919.679000", "122919.681000", "122919.683000", "122939.604000", "122939.607000", "122939.609000", "122939.612000", "122939.614000", "122939.616000", "122939.619000", "122939.621000", "122939.624000", "122939.626000", "122939.628000", "122939.639000", "122939.642000", "122939.644000", "122939.647000", "122939.649000", "122939.651000", "122939.654000", "122939.656000", "122939.659000", "122939.662000", "122939.664000", "122939.667000", "122939.669000", "122939.672000", "122939.674000", "122939.676000", "122939.679000", "122939.681000", "122939.684000", "122939.686000", "122939.689000", "122959.604000", "122959.609000", "122959.611000", "122959.614000", "122959.616000", "122959.619000", "122959.621000", "122959.624000", "122959.626000", "122959.628000", "122959.631000", "122959.634000", "122959.636000", "122959.638000", "122959.641000", "122959.643000", "122959.646000", "122959.648000", "122959.650000", "122959.653000", "122959.655000", "122959.658000", "122959.660000", "122959.663000", "122959.665000", "122959.667000", "122959.670000", "122959.672000", "122959.675000", "122959.677000", "122959.679000", "122959.682000", "122959.684000", "123019.605000", "123019.608000", "123019.610000", "123019.612000", "123019.615000", "123019.617000", "123019.620000", "123019.622000", "123019.625000", "123019.627000", "123019.629000", "123019.632000", "123019.634000", "123019.637000", "123019.639000", "123019.641000", "123019.644000", "123019.646000", "123019.649000", "123019.651000", "123019.654000", "123019.656000", "123019.658000", "123019.661000", "123019.663000", "123019.666000", "123019.668000", "123019.670000", "123019.673000", "123019.675000", "123019.678000", "123019.680000", "123019.683000", "123039.605000", "123039.608000", "123039.610000", "123039.613000", "123039.615000", "123039.618000", "123039.620000", "123039.622000", "123039.625000", "123039.627000", "123039.630000", "123039.632000", "123039.634000", "123039.637000", "123039.639000", "123039.642000", "123039.644000", "123039.647000", "123039.649000", "123039.651000", "123039.654000", "123039.656000", "123039.658000", "123039.661000", "123039.663000", "123039.666000", "123039.668000", "123039.670000", "123039.673000", "123039.675000", "123039.678000", "123039.680000", "123039.682