{"AcquisitionMatrixPE": 64, "AcquisitionNumber": 1, "AcquisitionTime": "12:37:57.702500", "BandwidthPerPixelPhaseEncode": 28.935, "BaseResolution": 64, "BodyPartExamined": "BRAIN", "CoilString": "HC2_4_6_7;SC", "ConsistencyInfo": "N4_VE11E_LATEST_20181129", "ConversionSoftware": "dcm2niix", "ConversionSoftwareVersion": "v1.0.20190902", "DerivedVendorReportedEchoSpacing": 0.000540003, "DeviceSerialNumber": "166182", "DwellTime": 3.4e-06, "EchoTime": 0.032, "EchoTrainLength": 64, "EffectiveEchoSpacing": 0.000540003, "FlipAngle": 40, "ImageOrientationPatientDICOM": [0.998846, 0.0387594, -0.0283668, -0.0374989, 0.998341, 0.0436927], "ImageType": ["ORIGINAL", "PRIMARY", "M", "ND", "NORM", "MOSAIC"], "ImagingFrequency": 123.257, "InPlanePhaseEncodingDirectionDICOM": "COL", "InstitutionAddress": "PEARSE_STREET_._City_District_IE_D2", "InstitutionName": "TCIN", "InstitutionalDepartmentName": "MRI", "MRAcquisitionType": "2D", "MagneticFieldStrength": 3, "Manufacturer": "Siemens", "ManufacturersModelName": "Prisma", "Modality": "MR", "MultibandAccelerationFactor": 4, "PartialFourier": 1, "PatientPosition": "HFS", "PercentPhaseFOV": 100, "PhaseEncodingDirection": "j-", "PhaseEncodingSteps": 64, "PhaseResolution": 1, "PixelBandwidth": 2300, "ProcedureStepDescription": "Rhodri_Head_BOLD", "ProtocolName": "cmrr_mbep2d_Pictures_AP_RDS", "PulseSequenceDetails": "%SiemensSeq%_ep2d_bold", "ReceiveCoilActiveElements": "HC2,4,6,7;SC", "ReceiveCoilName": "SpecialPurpose_4", "ReconMatrixPE": 64, "RefLinesPE": 12, "RepetitionTime": 0.61, "SAR": 0.253461, "ScanOptions": "FS", "ScanningSequence": "EP", "SequenceName": "_epfid2d1_64", "SequenceVariant": "SK", "SeriesDescription": "cmrr_mbep2d_Pictures_AP_RDS", "SeriesNumber": 14, "ShimSetting": [-3621, -7463, 3777, 897, -126, 102, 293, -18], "SliceThickness": 3, "SliceTiming": [0.2625, 0, 0.3275, 0.065, 0.395, 0.1325, 0.46, 0.1975, 0.525, 0.2625, 0, 0.3275, 0.065, 0.395, 0.1325, 0.46, 0.1975, 0.525, 0.2625, 0, 0.3275, 0.065, 0.395, 0.1325, 0.46, 0.1975, 0.525, 0.2625, 0, 0.3275, 0.065, 0.395, 0.1325, 0.46, 0.1975, 0.525], "SoftwareVersions": "syngo_MR_E11", "SpacingBetweenSlices": 3.3, "StationName": "AWP166182", "TaskName": "pictures", "TotalReadoutTime": 0.0340202, "TxRefAmp": 235.878, "dcmmeta_affine": [[-2.996537446975708, -0.11249680817127228, -0.09904371201992035, 101.38531494140625], [-0.11627813428640366, 2.995023012161255, 0.14050906896591187, -95.18009185791016], [-0.08510041981935501, -0.13107797503471375, 3.2955191135406494, -90.5598373413086], [0.0, 0.0, 0.0, 1.0]], "dcmmeta_reorient_transform": [[0.0, -1.0, 0.0, 63.0], [1.0, 0.0, 0.0, 0.0], [0.0, 0.0, 1.0, 0.0], [0.0, 0.0, 0.0, 1.0]], "dcmmeta_shape": [64, 64, 36, 510], "dcmmeta_slice_dim": 2, "dcmmeta_version": 0.6, "global": {"const": {"AcquisitionMatrix": [64, 0, 0, 64], "AngioFlag": "N", "BitsAllocated": 16, "BitsStored": 12, "BodyPartExamined": "BRAIN", "Columns": 384, "EchoNumbers": 1, "EchoTime": 32.0, "EchoTrainLength": 64, "FlipAngle": 40.0, "HighBit": 11, "ImageOrientationPatient": [0.99884585140594, 0.0387593781141, -0.0283668069644, -0.0374989350068, 0.99834101461807, 0.04369265847626], "ImagePositionPatient": [-555.74453256137, -591.31454886617, -106.17415653528], "ImageType": ["ORIGINAL", "PRIMARY", "M", "ND", "NORM", "MOSAIC"], "ImagedNucleus": "1H", "ImagingFrequency": 123.256499, "InPlanePhaseEncodingDirection": "COL", "MRAcquisitionType": "2D", "MagneticFieldStrength": 3.0, "Manufacturer": "SIEMENS", "ManufacturerModelName": "Prisma", "Modality": "MR", "NumberOfAverages": 1.0, "NumberOfPhaseEncodingSteps": 64, "PercentPhaseFieldOfView": 100.0, "PercentSampling": 100.0, "PerformedProcedureStepStartTime": "120803.670000", "PhotometricInterpretation": "MONOCHROME2", "PixelBandwidth": 2300.0, "PixelRepresentation": 0, "PixelSpacing": [3.0, 3.0], "ProtocolName": "cmrr_mbep2d_Pictures_AP_RDS", "RepetitionTime": 610.0, "Rows": 384, "SAR": 0.2534608890979, "SamplesPerPixel": 1, "ScanOptions": "FS", "ScanningSequence": "EP", "SequenceName": "*epfid2d1_64", "SequenceVariant": "SK", "SeriesDescription": "cmrr_mbep2d_Pictures_AP_RDS", "SeriesNumber": 14, "SeriesTime": "123819.519000", "SliceLocation": -97.532403135594, "SliceThickness": 3.0, "SmallestImagePixelValue": 0, "SoftwareVersions": "syngo MR E11", "SpacingBetweenSlices": 3.2999998890103, "SpecificCharacterSet": "ISO_IR 100", "StudyID": "1", "StudyTime": "120803.417000", "TransmitCoilName": "Body", "VariableFlipAngleFlag": "N", "WindowCenterWidthExplanation": "Algo1"}, "slices": {}}, "time": {"samples": {"AcquisitionNumber": [1, 2, 3, 4, 5, 6, 7, 8, 9, 10, 11, 12, 13, 14, 15, 16, 17, 18, 19, 20, 21, 22, 23, 24, 25, 26, 27, 28, 29, 30, 31, 32, 33, 34, 35, 36, 37, 38, 39, 40, 41, 42, 43, 44, 45, 46, 47, 48, 49, 50, 51, 52, 53, 54, 55, 56, 57, 58, 59, 60, 61, 62, 63, 64, 65, 66, 67, 68, 69, 70, 71, 72, 73, 74, 75, 76, 77, 78, 79, 80, 81, 82, 83, 84, 85, 86, 87, 88, 89, 90, 91, 92, 93, 94, 95, 96, 97, 98, 99, 100, 101, 102, 103, 104, 105, 106, 107, 108, 109, 110, 111, 112, 113, 114, 115, 116, 117, 118, 119, 120, 121, 122, 123, 124, 125, 126, 127, 128, 129, 130, 131, 132, 133, 134, 135, 136, 137, 138, 139, 140, 141, 142, 143, 144, 145, 146, 147, 148, 149, 150, 151, 152, 153, 154, 155, 156, 157, 158, 159, 160, 161, 162, 163, 164, 165, 166, 167, 168, 169, 170, 171, 172, 173, 174, 175, 176, 177, 178, 179, 180, 181, 182, 183, 184, 185, 186, 187, 188, 189, 190, 191, 192, 193, 194, 195, 196, 197, 198, 199, 200, 201, 202, 203, 204, 205, 206, 207, 208, 209, 210, 211, 212, 213, 214, 215, 216, 217, 218, 219, 220, 221, 222, 223, 224, 225, 226, 227, 228, 229, 230, 231, 232, 233, 234, 235, 236, 237, 238, 239, 240, 241, 242, 243, 244, 245, 246, 247, 248, 249, 250, 251, 252, 253, 254, 255, 256, 257, 258, 259, 260, 261, 262, 263, 264, 265, 266, 267, 268, 269, 270, 271, 272, 273, 274, 275, 276, 277, 278, 279, 280, 281, 282, 283, 284, 285, 286, 287, 288, 289, 290, 291, 292, 293, 294, 295, 296, 297, 298, 299, 300, 301, 302, 303, 304, 305, 306, 307, 308, 309, 310, 311, 312, 313, 314, 315, 316, 317, 318, 319, 320, 321, 322, 323, 324, 325, 326, 327, 328, 329, 330, 331, 332, 333, 334, 335, 336, 337, 338, 339, 340, 341, 342, 343, 344, 345, 346, 347, 348, 349, 350, 351, 352, 353, 354, 355, 356, 357, 358, 359, 360, 361, 362, 363, 364, 365, 366, 367, 368, 369, 370, 371, 372, 373, 374, 375, 376, 377, 378, 379, 380, 381, 382, 383, 384, 385, 386, 387, 388, 389, 390, 391, 392, 393, 394, 395, 396, 397, 398, 399, 400, 401, 402, 403, 404, 405, 406, 407, 408, 409, 410, 411, 412, 413, 414, 415, 416, 417, 418, 419, 420, 421, 422, 423, 424, 425, 426, 427, 428, 429, 430, 431, 432, 433, 434, 435, 436, 437, 438, 439, 440, 441, 442, 443, 444, 445, 446, 447, 448, 449, 450, 451, 452, 453, 454, 455, 456, 457, 458, 459, 460, 461, 462, 463, 464, 465, 466, 467, 468, 469, 470, 471, 472, 473, 474, 475, 476, 477, 478, 479, 480, 481, 482, 483, 484, 485, 486, 487, 488, 489, 490, 491, 492, 493, 494, 495, 496, 497, 498, 499, 500, 501, 502, 503, 504, 505, 506, 507, 508, 509, 510], "AcquisitionTime": ["123757.702500", "123758.312500", "123758.922500", "123759.532500", "123800.142500", "123800.752500", "123801.362500", "123801.972500", "123802.582500", "123803.192500", "123803.802500", "123804.412500", "123805.022500", "123805.632500", "123806.242500", "123806.852500", "123807.462500", "123808.072500", "123808.682500", "123809.292500", "123809.902500", "123810.512500", "123811.122500", "123811.732500", "123812.342500", "123812.952500", "123813.562500", "123814.172500", "123814.782500", "123815.392500", "123816.002500", "123816.612500", "123817.222500", "123817.832500", "123818.442500", "123819.052500", "123819.662500", "123820.272500", "123820.882500", "123821.492500", "123822.102500", "123822.712500", "123823.322500", "123823.932500", "123824.542500", "123825.152500", "123825.762500", "123826.372500", "123826.982500", "123827.592500", "123828.202500", "123828.812500", "123829.422500", "123830.032500", "123830.642500", "123831.252500", "123831.862500", "123832.472500", "123833.082500", "123833.692500", "123834.302500", "123834.912500", "123835.522500", "123836.132500", "123836.742500", "123837.352500", "123837.962500", "123838.572500", "123839.182500", "123839.792500", "123840.402500", "123841.012500", "123841.622500", "123842.232500", "123842.842500", "123843.452500", "123844.062500", "123844.672500", "123845.282500", "123845.892500", "123846.502500", "123847.112500", "123847.722500", "123848.332500", "123848.942500", "123849.552500", "123850.162500", "123850.772500", "123851.382500", "123851.992500", "123852.602500", "123853.212500", "123853.822500", "123854.432500", "123855.042500", "123855.652500", "123856.262500", "123856.872500", "123857.482500", "123858.092500", "123858.702500", "123859.312500", "123859.922500", "123900.532500", "123901.142500", "123901.752500", "123902.362500", "123902.972500", "123903.582500", "123904.192500", "123904.802500", "123905.412500", "123906.022500", "123906.632500", "123907.242500", "123907.852500", "123908.462500", "123909.072500", "123909.682500", "123910.292500", "123910.902500", "123911.512500", "123912.122500", "123912.732500", "123913.342500", "123913.952500", "123914.562500", "123915.172500", "123915.782500", "123916.392500", "123917.002500", "123917.612500", "123918.222500", "123918.832500", "123919.442500", "123920.052500", "123920.662500", "123921.272500", "123921.882500", "123922.492500", "123923.102500", "123923.712500", "123924.322500", "123924.932500", "123925.542500", "123926.152500", "123926.762500", "123927.372500", "123927.982500", "123928.592500", "123929.202500", "123929.812500", "123930.422500", "123931.032500", "123931.642500", "123932.252500", "123932.862500", "123933.472500", "123934.082500", "123934.692500", "123935.302500", "123935.912500", "123936.522500", "123937.132500", "123937.742500", "123938.352500", "123938.962500", "123939.572500", "123940.182500", "123940.792500", "123941.402500", "123942.012500", "123942.622500", "123943.232500", "123943.842500", "123944.452500", "123945.062500", "123945.672500", "123946.282500", "123946.892500", "123947.502500", "123948.112500", "123948.722500", "123949.332500", "123949.942500", "123950.552500", "123951.162500", "123951.772500", "123952.382500", "123952.992500", "123953.602500", "123954.212500", "123954.822500", "123955.432500", "123956.042500", "123956.652500", "123957.262500", "123957.872500", "123958.482500", "123959.092500", "123959.702500", "124000.312500", "124000.922500", "124001.532500", "124002.142500", "124002.752500", "124003.362500", "124003.972500", "124004.582500", "124005.192500", "124005.802500", "124006.412500", "124007.022500", "124007.632500", "124008.242500", "124008.852500", "124009.462500", "124010.072500", "124010.682500", "124011.292500", "124011.902500", "124012.512500", "124013.122500", "124013.732500", "124014.342500", "124014.952500", "124015.562500", "124016.172500", "124016.782500", "124017.392500", "124018.002500", "124018.612500", "124019.222500", "124019.832500", "124020.442500", "124021.052500", "124021.662500", "124022.272500", "124022.882500", "124023.492500", "124024.102500", "124024.712500", "124025.322500", "124025.932500", "124026.542500", "124027.152500", "124027.762500", "124028.372500", "124028.982500", "124029.592500", "124030.202500", "124030.812500", "124031.422500", "124032.032500", "124032.642500", "124033.252500", "124033.862500", "124034.472500", "124035.082500", "124035.692500", "124036.302500", "124036.912500", "124037.522500", "124038.132500", "124038.742500", "124039.352500", "124039.962500", "124040.572500", "124041.182500", "124041.792500", "124042.402500", "124043.012500", "124043.622500", "124044.232500", "124044.842500", "124045.452500", "124046.062500", "124046.672500", "124047.282500", "124047.892500", "124048.502500", "124049.112500", "124049.722500", "124050.332500", "124050.942500", "124051.552500", "124052.162500", "124052.772500", "124053.382500", "124053.992500", "124054.602500", "124055.212500", "124055.822500", "124056.432500", "124057.042500", "124057.652500", "124058.262500", "124058.872500", "124059.482500", "124100.092500", "124100.702500", "124101.312500", "124101.922500", "124102.532500", "124103.142500", "124103.752500", "124104.362500", "124104.972500", "124105.582500", "124106.192500", "124106.802500", "124107.412500", "124108.022500", "124108.632500", "124109.242500", "124109.852500", "124110.462500", "124111.072500", "124111.682500", "124112.292500", "124112.902500", "124113.512500", "124114.122500", "124114.732500", "124115.342500", "124115.952500", "124116.562500", "124117.172500", "124117.782500", "124118.392500", "124119.002500", "124119.612500", "124120.222500", "124120.832500", "124121.442500", "124122.052500", "124122.662500", "124123.272500", "124123.882500", "124124.492500", "124125.102500", "124125.712500", "124126.322500", "124126.932500", "124127.542500", "124128.152500", "124128.762500", "124129.372500", "124129.982500", "124130.592500", "124131.202500", "124131.812500", "124132.422500", "124133.032500", "124133.642500", "124134.252500", "124134.862500", "124135.472500", "124136.082500", "124136.692500", "124137.302500", "124137.912500", "124138.522500", "124139.132500", "124139.742500", "124140.352500", "124140.962500", "124141.572500", "124142.182500", "124142.792500", "124143.402500", "124144.012500", "124144.622500", "124145.232500", "124145.842500", "124146.452500", "124147.062500", "124147.672500", "124148.282500", "124148.892500", "124149.502500", "124150.112500", "124150.722500", "124151.332500", "124151.942500", "124152.552500", "124153.162500", "124153.772500", "124154.382500", "124154.992500", "124155.602500", "124156.212500", "124156.822500", "124157.432500", "124158.042500", "124158.652500", "124159.262500", "124159.872500", "124200.482500", "124201.092500", "124201.702500", "124202.312500", "124202.922500", "124203.532500", "124204.142500", "124204.752500", "124205.362500", "124205.972500", "124206.582500", "124207.192500", "124207.802500", "124208.412500", "124209.022500", "124209.632500", "124210.242500", "124210.852500", "124211.462500", "124212.072500", "124212.682500", "124213.292500", "124213.902500", "124214.512500", "124215.122500", "124215.732500", "124216.342500", "124216.952500", "124217.562500", "124218.172500", "124218.782500", "124219.392500", "124220.002500", "124220.612500", "124221.222500", "124221.832500", "124222.442500", "124223.052500", "124223.662500", "124224.272500", "124224.882500", "124225.492500", "124226.102500", "124226.712500", "124227.322500", "124227.932500", "124228.542500", "124229.152500", "124229.762500", "124230.372500", "124230.982500", "124231.592500", "124232.202500", "124232.812500", "124233.422500", "124234.032500", "124234.642500", "124235.252500", "124235.862500", "124236.472500", "124237.082500", "124237.692500", "124238.302500", "124238.912500", "124239.522500", "124240.132500", "124240.742500", "124241.352500", "124241.962500", "124242.572500", "124243.182500", "124243.792500", "124244.402500", "124245.012500", "124245.622500", "124246.232500", "124246.842500", "124247.452500", "124248.062500", "124248.672500", "124249.282500", "124249.892500", "124250.502500", "124251.112500", "124251.722500", "124252.332500", "124252.942500", "124253.552500", "124254.162500", "124254.772500", "124255.382500", "124255.992500", "124256.602500", "124257.212500", "124257.822500", "124258.432500", "124259.042500", "124259.652500", "124300.262500", "124300.872500", "124301.482500", "124302.092500", "124302.702500", "124303.312500", "124303.922500", "124304.532500", "124305.142500", "124305.752500", "124306.362500", "124306.972500", "124307.582500", "124308.192500"], "ContentTime": ["123819.523000", "123819.526000", "123819.529000", "123819.531000", "123819.534000", "123819.536000", "123819.539000", "123819.541000", "123819.543000", "123819.546000", "123819.548000", "123819.551000", "123819.553000", "123819.563000", "123819.569000", "123819.572000", "123819.574000", "123819.576000", "123819.579000", "123819.582000", "123819.584000", "123819.587000", "123819.589000", "123819.591000", "123819.594000", "123819.596000", "123819.599000", "123819.602000", "123819.604000", "123819.606000", "123819.609000", "123819.611000", "123819.614000", "123819.616000", "123819.619000", "123839.518000", "123839.521000", "123839.523000", "123839.526000", "123839.528000", "123839.530000", "123839.533000", "123839.542000", "123839.544000", "123839.546000", "123839.549000", "123839.551000", "123839.554000", "123839.556000", "123839.558000", "123839.561000", "123839.563000", "123839.566000", "123839.568000", "123839.571000", "123839.573000", "123839.627000", "123839.629000", "123839.631000", "123839.634000", "123839.636000", "123839.639000", "123839.641000", "123839.643000", "123839.646000", "123839.648000", "123839.651000", "123859.518000", "123859.521000", "123859.523000", "123859.525000", "123859.528000", "123859.530000", "123859.533000", "123859.535000", "123859.538000", "123859.540000", "123859.543000", "123859.545000", "123859.547000", "123859.550000", "123859.552000", "123859.555000", "123859.557000", "123859.560000", "123859.562000", "123859.565000", "123859.571000", "123859.573000", "123859.575000", "123859.578000", "123859.580000", "123859.583000", "123859.585000", "123859.588000", "123859.590000", "123859.593000", "123859.595000", "123859.597000", "123859.600000", "123919.518000", "123919.521000", "123919.523000", "123919.526000", "123919.528000", "123919.531000", "123919.533000", "123919.536000", "123919.539000", "123919.541000", "123919.543000", "123919.546000", "123919.548000", "123919.551000", "123919.553000", "123919.555000", "123919.558000", "123919.560000", "123919.563000", "123919.565000", "123919.567000", "123919.570000", "123919.572000", "123919.574000", "123919.577000", "123919.579000", "123919.582000", "123919.584000", "123919.586000", "123919.589000", "123919.591000", "123919.594000", "123919.596000", "123939.519000", "123939.522000", "123939.524000", "123939.527000", "123939.529000", "123939.532000", "123939.534000", "123939.536000", "123939.539000", "123939.541000", "123939.544000", "123939.546000", "123939.548000", "123939.551000", "123939.553000", "123939.556000", "123939.558000", "123939.560000", "123939.563000", "123939.565000", "123939.568000", "123939.570000", "123939.573000", "123939.575000", "123939.578000", "123939.580000", "123939.582000", "123939.585000", "123939.587000", "123939.590000", "123939.592000", "123939.594000", "123939.597000", "123959.519000", "123959.522000", "123959.524000", "123959.527000", "123959.529000", "123959.539000", "123959.542000", "123959.544000", "123959.547000", "123959.549000", "123959.551000", "123959.554000", "123959.556000", "123959.558000", "123959.561000", "123959.563000", "123959.566000", "123959.568000", "123959.571000", "123959.573000", "123959.576000", "123959.578000", "123959.580000", "123959.583000", "123959.585000", "123959.588000", "123959.590000", "123959.593000", "123959.595000", "123959.597000", "123959.600000", "123959.602000", "123959.605000", "124019.518000", "124019.521000", "124019.523000", "124019.526000", "124019.528000", "124019.531000", "124019.533000", "124019.535000", "124019.538000", "124019.540000", "124019.543000", "124019.545000", "124019.548000", "124019.550000", "124019.552000", "124019.555000", "124019.557000", "124019.560000", "124019.562000", "124019.565000", "124019.567000", "124019.570000", "124019.572000", "124019.575000", "124019.577000", "124019.580000", "124019.582000", "124019.584000", "124019.587000", "124019.589000", "124019.592000", "124019.594000", "124039.518000", "124039.521000", "124039.523000", "124039.526000", "124039.528000", "124039.531000", "124039.533000", "124039.535000", "124039.538000", "124039.540000", "124039.543000", "124039.545000", "124039.548000", "124039.550000", "124039.553000", "124039.555000", "124039.563000", "124039.565000", "124039.568000", "124039.570000", "124039.573000", "124039.575000", "124039.578000", "124039.580000", "124039.582000", "124039.585000", "124039.587000", "124039.590000", "124039.592000", "124039.594000", "124039.597000", "124039.599000", "124039.602000", "124059.518000", "124059.521000", "124059.523000", "124059.526000", "124059.528000", "124059.531000", "124059.533000", "124059.535000", "124059.538000", "124059.540000", "124059.542000", "124059.545000", "124059.547000", "124059.550000", "124059.552000", "124059.554000", "124059.557000", "124059.559000", "124059.562000", "124059.564000", "124059.567000", "124059.569000", "124059.572000", "124059.574000", "124059.576000", "124059.579000", "124059.581000", "124059.584000", "124059.586000", "124059.589000", "124059.591000", "124059.593000", "124059.596000", "124119.518000", "124119.521000", "124119.524000", "124119.526000", "124119.528000", "124119.531000", "124119.533000", "124119.536000", "124119.538000", "124119.541000", "124119.543000", "124119.545000", "124119.548000", "124119.550000", "124119.553000", "124119.555000", "124119.558000", "124119.560000", "124119.563000", "124119.565000", "124119.567000", "124119.570000", "124119.572000", "124119.575000", "124119.578000", "124119.580000", "124119.583000", "124119.585000", "124119.588000", "124119.590000", "124119.592000", "124119.595000", "124119.597000", "124139.519000", "124139.522000", "124139.524000", "124139.527000", "124139.529000", "124139.532000", "124139.534000", "124139.537000", "124139.539000", "124139.541000", "124139.544000", "124139.546000", "124139.549000", "124139.551000", "124139.554000", "124139.556000", "124139.558000", "124139.561000", "124139.563000", "124139.566000", "124139.568000", "124139.571000", "124139.573000", "124139.575000", "124139.578000", "124139.580000", "124139.583000", "124139.585000", "124139.587000", "124139.590000", "124139.592000", "124139.595000", "124139.597000", "124159.519000", "124159.522000", "124159.524000", "124159.529000", "124159.531000", "124159.534000", "124159.536000", "124159.538000", "124159.541000", "124159.543000", "124159.546000", "124159.548000", "124159.550000", "124159.553000", "124159.555000", "124159.558000", "124159.560000", "124159.563000", "124159.565000", "124159.568000", "124159.570000", "124159.572000", "124159.575000", "124159.577000", "124159.580000", "124159.582000", "124159.584000", "124159.587000", "124159.589000", "124159.592000", "124159.594000", "124159.597000", "124219.519000", "124219.522000", "124219.527000", "124219.529000", "124219.532000", "124219.534000", "124219.536000", "124219.539000", "124219.541000", "124219.544000", "124219.546000", "124219.549000", "124219.551000", "124219.554000", "124219.556000", "124219.558000", "124219.561000", "124219.566000", "124219.569000", "124219.571000", "124219.574000", "124219.576000", "124219.579000", "124219.581000", "124219.584000", "124219.587000", "124219.589000", "124219.592000", "124219.594000", "124219.597000", "124219.599000", "124219.601000", "124219.604000", "124239.518000", "124239.521000", "124239.523000", "124239.526000", "124239.528000", "124239.531000", "124239.533000", "124239.536000", "124239.538000", "124239.541000", "124239.543000", "124239.546000", "124239.548000", "124239.550000", "124239.553000", "124239.555000", "124239.558000", "124239.560000", "124239.563000", "124239.565000", "124239.575000", "124239.577000", "124239.579000", "124239.582000", "124239.584000", "124239.587000", "124239.589000", "124239.592000", "124239.594000", "124239.597000", "124239.599000", "124239.602000", "124239.604000", "124259.518000", "124259.521000", "124259.523000", "124259.526000", "124259.529000", "124259.531000", "124259.533000", "124259.536000", "124259.538000", "124259.541000", "124259.543000", "124259.546000", "124259.548000", "124259.550000", "124259.553000", "124259.555000", "124259.558000", "124259.560000", "124259.563000", "124259.565000", "124259.568000", "124259.570000", "124259.573000", "124259.575000", "124259.578000", "124259.580000", "124259.582000", "124259.585000", "124259.587000", "124259.590000", "124259.592000", "124259.595000", "124259.597000", "124309.120000", "124309.123000", "124309.125000", "124309.128000", "124309.130000", "124309.133000", "124309.135000", "124309.138000", "124309.140000", "124309.143000", "124309.145000", "124309.147000", "124309.150000", "124309.152000", "124309.155000", "124309.157000"], "InstanceCreationTime": ["123819.523000", "123819.526000", "123819.529000", "123819.531000", "123819.534000", "123819.536000", "123819.539000", "123819.541000", "123819.543000", "123819.546000", "123819.548000", "123819.551000", "123819.553000", "123819.563000", "123819.569000", "123819.572000", "123819.574000", "123819.576000", "123819.579000", "123819.582000", "123819.584000", "123819.587000", "123819.589000", "123819.591000", "123819.594000", "123819.596000", "123819.599000", "123819.602000", "123819.604000", "123819.606000", "123819.609000", "123819.611000", "123819.614000", "123819.616000", "123819.619000", "123839.518000", "123839.521000", "123839.523000", "123839.526000", "123839.528000", "123839.530000", "123839.533000", "123839.542000", "123839.544000", "123839.546000", "123839.549000", "123839.551000", "123839.554000", "123839.556000", "123839.558000", "123839.561000", "123839.563000", "123839.566000", "123839.568000", "123839.571000", "123839.573000", "123839.627000", "123839.629000", "123839.631000", "123839.634000", "123839.636000", "123839.639000", "123839.641000", "123839.643000", "123839.646000", "123839.648000", "123839.651000", "123859.518000", "123859.521000", "123859.523000", "123859.525000", "123859.528000", "123859.530000", "123859.533000", "123859.535000", "123859.538000", "123859.540000", "123859.543000", "123859.545000", "123859.547000", "123859.550000", "123859.552000", "123859.555000", "123859.557000", "123859.560000", "123859.562000", "123859.565000", "123859.571000", "123859.573000", "123859.575000", "123859.578000", "123859.580000", "123859.583000", "123859.585000", "123859.588000", "123859.590000", "123859.593000", "123859.595000", "123859.597000", "123859.600000", "123919.518000", "123919.521000", "123919.523000", "123919.526000", "123919.528000", "123919.531000", "123919.533000", "123919.536000", "123919.539000", "123919.541000", "123919.543000", "123919.546000", "123919.548000", "123919.551000", "123919.553000", "123919.555000", "123919.558000", "123919.560000", "123919.563000", "123919.565000", "123919.567000", "123919.570000", "123919.572000", "123919.574000", "123919.577000", "123919.579000", "123919.582000", "123919.584000", "123919.586000", "123919.589000", "123919.591000", "123919.594000", "123919.596000", "123939.519000", "123939.522000", "123939.524000", "123939.527000", "123939.529000", "123939.532000", "123939.534000", "123939.536000", "123939.539000", "123939.541000", "123939.544000", "123939.546000", "123939.548000", "123939.551000", "123939.553000", "123939.556000", "123939.558000", "123939.560000", "123939.563000", "123939.565000", "123939.568000", "123939.570000", "123939.573000", "123939.575000", "123939.578000", "123939.580000", "123939.582000", "123939.585000", "123939.587000", "123939.590000", "123939.592000", "123939.594000", "123939.597000", "123959.519000", "123959.522000", "123959.524000", "123959.527000", "123959.529000", "123959.539000", "123959.542000", "123959.544000", "123959.547000", "123959.549000", "123959.551000", "123959.554000", "123959.556000", "123959.558000", "123959.561000", "123959.563000", "123959.566000", "123959.568000", "123959.571000", "123959.573000", "123959.576000", "123959.578000", "123959.580000", "123959.583000", "123959.585000", "123959.588000", "123959.590000", "123959.593000", "123959.595000", "123959.597000", "123959.600000", "123959.602000", "123959.605000", "124019.518000", "124019.521000", "124019.523000", "124019.526000", "124019.528000", "124019.531000", "124019.533000", "124019.535000", "124019.538000", "124019.540000", "124019.543000", "124019.545000", "124019.548000", "124019.550000", "124019.552000", "124019.555000", "124019.557000", "124019.560000", "124019.562000", "124019.565000", "124019.567000", "124019.570000", "124019.572000", "124019.575000", "124019.577000", "124019.580000", "124019.582000", "124019.584000", "124019.587000", "124019.589000", "124019.592000", "124019.594000", "124039.518000", "124039.521000", "124039.523000", "124039.526000", "124039.528000", "124039.531000", "124039.533000", "124039.535000", "124039.538000", "124039.540000", "124039.543000", "124039.545000", "124039.548000", "124039.550000", "124039.553000", "124039.555000", "124039.563000", "124039.565000", "124039.568000", "124039.570000", "124039.573000", "124039.575000", "124039.578000", "124039.580000", "124039.582000", "124039.585000", "124039.587000", "124039.590000", "124039.592000", "124039.594000", "124039.597000", "124039.599000", "124039.602000", "124059.518000", "124059.521000", "124059.523000", "124059.526000", "124059.528000", "124059.531000", "124059.533000", "124059.535000", "124059.538000", "124059.540000", "124059.542000", "124059.545000", "124059.547000", "124059.550000", "124059.552000", "124059.554000", "124059.557000", "124059.559000", "124059.562000", "124059.564000", "124059.567000", "124059.569000", "124059.572000", "124059.574000", "124059.576000", "124059.579000", "124059.581000", "124059.584000", "124059.586000", "124059.589000", "124059.591000", "124059.593000", "124059.596000", "124119.518000", "124119.521000", "124119.524000", "124119.526000", "124119.528000", "124119.531000", "124119.533000", "124119.536000", "124119.538000", "124119.541000", "124119.543000", "124119.545000", "124119.548000", "124119.550000", "124119.553000", "124119.555000", "124119.558000", "124119.560000", "124119.563000", "124119.565000", "124119.567000", "124119.570000", "124119.572000", "124119.575000", "124119.578000", "124119.580000", "124119.583000", "124119.585000", "124119.588000", "124119.590000", "124119.592000", "124119.595000"