{"AcquisitionMatrixPE": 64, "AcquisitionNumber": 1, "AcquisitionTime": "14:22:23.700000", "BandwidthPerPixelPhaseEncode": 28.935, "BaseResolution": 64, "BodyPartExamined": "BRAIN", "CoilString": "HC2_4_6_7", "ConsistencyInfo": "N4_VE11E_LATEST_20181129", "ConversionSoftware": "dcm2niix", "ConversionSoftwareVersion": "v1.0.20190902", "DerivedVendorReportedEchoSpacing": 0.000540003, "DeviceSerialNumber": "166182", "DwellTime": 3.4e-06, "EchoTime": 0.032, "EchoTrainLength": 64, "EffectiveEchoSpacing": 0.000540003, "FlipAngle": 40, "ImageOrientationPatientDICOM": [0.997121, 0.0145737, -0.0744098, -0.0172308, 0.999232, -0.0351929], "ImageType": ["ORIGINAL", "PRIMARY", "M", "ND", "NORM", "MOSAIC"], "ImagingFrequency": 123.256, "InPlanePhaseEncodingDirectionDICOM": "COL", "InstitutionAddress": "PEARSE_STREET_._City_District_IE_D2", "InstitutionName": "TCIN", "InstitutionalDepartmentName": "MRI", "MRAcquisitionType": "2D", "MagneticFieldStrength": 3, "Manufacturer": "Siemens", "ManufacturersModelName": "Prisma", "Modality": "MR", "MultibandAccelerationFactor": 4, "PartialFourier": 1, "PatientPosition": "HFS", "PercentPhaseFOV": 100, "PhaseEncodingDirection": "j-", "PhaseEncodingSteps": 64, "PhaseResolution": 1, "PixelBandwidth": 2300, "ProcedureStepDescription": "Rhodri_Head_BOLD", "ProtocolName": "cmrr_mbep2d_Pictures_AP_RDS", "PulseSequenceDetails": "%SiemensSeq%_ep2d_bold", "ReceiveCoilActiveElements": "HC2,4,6,7", "ReceiveCoilName": "HeadNeck_64", "ReconMatrixPE": 64, "RefLinesPE": 12, "RepetitionTime": 0.61, "SAR": 0.204156, "ScanOptions": "FS", "ScanningSequence": "EP", "SequenceName": "_epfid2d1_64", "SequenceVariant": "SK", "SeriesDescription": "cmrr_mbep2d_Pictures_AP_RDS", "SeriesNumber": 8, "ShimSetting": [-3589, -7447, 3859, 949, -48, 144, 51, 119], "SliceThickness": 3, "SliceTiming": [0.2625, 0, 0.3275, 0.065, 0.3925, 0.13, 0.4575, 0.1975, 0.525, 0.2625, 0, 0.3275, 0.065, 0.3925, 0.13, 0.4575, 0.1975, 0.525, 0.2625, 0, 0.3275, 0.065, 0.3925, 0.13, 0.4575, 0.1975, 0.525, 0.2625, 0, 0.3275, 0.065, 0.3925, 0.13, 0.4575, 0.1975, 0.525], "SoftwareVersions": "syngo_MR_E11", "SpacingBetweenSlices": 3.3, "StationName": "AWP166182", "TaskName": "pictures", "TotalReadoutTime": 0.0340202, "TxRefAmp": 255.705, "dcmmeta_affine": [[-2.991363763809204, -0.05169238522648811, -0.24367138743400574, 102.85213470458984], [-0.04372105002403259, 2.9976959228515625, -0.12003343552350998, -95.12512969970703], [-0.2232295572757721, 0.10557881742715836, 3.288801670074463, -93.07884216308594], [0.0, 0.0, 0.0, 1.0]], "dcmmeta_reorient_transform": [[0.0, -1.0, 0.0, 63.0], [1.0, 0.0, 0.0, 0.0], [0.0, 0.0, 1.0, 0.0], [0.0, 0.0, 0.0, 1.0]], "dcmmeta_shape": [64, 64, 36, 458], "dcmmeta_slice_dim": 2, "dcmmeta_version": 0.6, "global": {"const": {"AcquisitionMatrix": [64, 0, 0, 64], "AngioFlag": "N", "BitsAllocated": 16, "BitsStored": 12, "BodyPartExamined": "BRAIN", "Columns": 384, "EchoNumbers": 1, "EchoTime": 32.0, "EchoTrainLength": 64, "FlipAngle": 40.0, "HighBit": 11, "ImageOrientationPatient": [0.99712124730411, 0.0145736829681, -0.0744098510913, -0.0172307946818, 0.99923198345668, -0.035192938949], "ImagePositionPatient": [-569.94293077409, -580.35643846013, -33.818034574937], "ImageType": ["ORIGINAL", "PRIMARY", "M", "ND", "NORM", "MOSAIC"], "ImagedNucleus": "1H", "ImagingFrequency": 123.256043, "InPlanePhaseEncodingDirection": "COL", "MRAcquisitionType": "2D", "MagneticFieldStrength": 3.0, "Manufacturer": "SIEMENS", "ManufacturerModelName": "Prisma", "Modality": "MR", "NumberOfAverages": 1.0, "NumberOfPhaseEncodingSteps": 64, "PercentPhaseFieldOfView": 100.0, "PercentSampling": 100.0, "PerformedProcedureStepStartTime": "141025.142000", "PhotometricInterpretation": "MONOCHROME2", "PixelBandwidth": 2300.0, "PixelRepresentation": 0, "PixelSpacing": [3.0, 3.0], "ProtocolName": "cmrr_mbep2d_Pictures_AP_RDS", "RepetitionTime": 610.0, "Rows": 384, "SAR": 0.20415596020513, "SamplesPerPixel": 1, "ScanOptions": "FS", "ScanningSequence": "EP", "SequenceName": "*epfid2d1_64", "SequenceVariant": "SK", "SeriesDescription": "cmrr_mbep2d_Pictures_AP_RDS", "SeriesNumber": 8, "SeriesTime": "142256.191000", "SliceLocation": -96.897504571895, "SliceThickness": 3.0, "SmallestImagePixelValue": 0, "SoftwareVersions": "syngo MR E11", "SpacingBetweenSlices": 3.3000000416422, "SpecificCharacterSet": "ISO_IR 100", "StudyID": "1", "StudyTime": "141025.070000", "TransmitCoilName": "Body", "VariableFlipAngleFlag": "N", "WindowCenterWidthExplanation": "Algo1"}, "slices": {}}, "time": {"samples": {"AcquisitionNumber": [1, 2, 3, 4, 5, 6, 7, 8, 9, 10, 11, 12, 13, 14, 15, 16, 17, 18, 19, 20, 21, 22, 23, 24, 25, 26, 27, 28, 29, 30, 31, 32, 33, 34, 35, 36, 37, 38, 39, 40, 41, 42, 43, 44, 45, 46, 47, 48, 49, 50, 51, 52, 53, 54, 55, 56, 57, 58, 59, 60, 61, 62, 63, 64, 65, 66, 67, 68, 69, 70, 71, 72, 73, 74, 75, 76, 77, 78, 79, 80, 81, 82, 83, 84, 85, 86, 87, 88, 89, 90, 91, 92, 93, 94, 95, 96, 97, 98, 99, 100, 101, 102, 103, 104, 105, 106, 107, 108, 109, 110, 111, 112, 113, 114, 115, 116, 117, 118, 119, 120, 121, 122, 123, 124, 125, 126, 127, 128, 129, 130, 131, 132, 133, 134, 135, 136, 137, 138, 139, 140, 141, 142, 143, 144, 145, 146, 147, 148, 149, 150, 151, 152, 153, 154, 155, 156, 157, 158, 159, 160, 161, 162, 163, 164, 165, 166, 167, 168, 169, 170, 171, 172, 173, 174, 175, 176, 177, 178, 179, 180, 181, 182, 183, 184, 185, 186, 187, 188, 189, 190, 191, 192, 193, 194, 195, 196, 197, 198, 199, 200, 201, 202, 203, 204, 205, 206, 207, 208, 209, 210, 211, 212, 213, 214, 215, 216, 217, 218, 219, 220, 221, 222, 223, 224, 225, 226, 227, 228, 229, 230, 231, 232, 233, 234, 235, 236, 237, 238, 239, 240, 241, 242, 243, 244, 245, 246, 247, 248, 249, 250, 251, 252, 253, 254, 255, 256, 257, 258, 259, 260, 261, 262, 263, 264, 265, 266, 267, 268, 269, 270, 271, 272, 273, 274, 275, 276, 277, 278, 279, 280, 281, 282, 283, 284, 285, 286, 287, 288, 289, 290, 291, 292, 293, 294, 295, 296, 297, 298, 299, 300, 301, 302, 303, 304, 305, 306, 307, 308, 309, 310, 311, 312, 313, 314, 315, 316, 317, 318, 319, 320, 321, 322, 323, 324, 325, 326, 327, 328, 329, 330, 331, 332, 333, 334, 335, 336, 337, 338, 339, 340, 341, 342, 343, 344, 345, 346, 347, 348, 349, 350, 351, 352, 353, 354, 355, 356, 357, 358, 359, 360, 361, 362, 363, 364, 365, 366, 367, 368, 369, 370, 371, 372, 373, 374, 375, 376, 377, 378, 379, 380, 381, 382, 383, 384, 385, 386, 387, 388, 389, 390, 391, 392, 393, 394, 395, 396, 397, 398, 399, 400, 401, 402, 403, 404, 405, 406, 407, 408, 409, 410, 411, 412, 413, 414, 415, 416, 417, 418, 419, 420, 421, 422, 423, 424, 425, 426, 427, 428, 429, 430, 431, 432, 433, 434, 435, 436, 437, 438, 439, 440, 441, 442, 443, 444, 445, 446, 447, 448, 449, 450, 451, 452, 453, 454, 455, 456, 457, 458], "AcquisitionTime": ["142223.700000", "142224.310000", "142224.920000", "142225.530000", "142226.140000", "142226.750000", "142227.360000", "142227.970000", "142228.580000", "142229.190000", "142229.800000", "142230.410000", "142231.020000", "142231.630000", "142232.240000", "142232.850000", "142233.460000", "142234.070000", "142234.680000", "142235.290000", "142235.900000", "142236.510000", "142237.120000", "142237.730000", "142238.340000", "142238.950000", "142239.560000", "142240.170000", "142240.780000", "142241.390000", "142242.000000", "142242.610000", "142243.220000", "142243.830000", "142244.440000", "142245.050000", "142245.660000", "142246.270000", "142246.880000", "142247.490000", "142248.100000", "142248.710000", "142249.320000", "142249.930000", "142250.540000", "142251.150000", "142251.760000", "142252.370000", "142252.980000", "142253.590000", "142254.200000", "142254.810000", "142255.420000", "142256.030000", "142256.640000", "142257.250000", "142257.860000", "142258.470000", "142259.080000", "142259.690000", "142300.300000", "142300.910000", "142301.520000", "142302.130000", "142302.740000", "142303.350000", "142303.960000", "142304.570000", "142305.180000", "142305.790000", "142306.400000", "142307.010000", "142307.620000", "142308.230000", "142308.840000", "142309.450000", "142310.060000", "142310.670000", "142311.280000", "142311.890000", "142312.500000", "142313.110000", "142313.720000", "142314.330000", "142314.940000", "142315.550000", "142316.160000", "142316.770000", "142317.380000", "142317.990000", "142318.600000", "142319.210000", "142319.820000", "142320.430000", "142321.040000", "142321.650000", "142322.260000", "142322.870000", "142323.480000", "142324.090000", "142324.700000", "142325.310000", "142325.920000", "142326.530000", "142327.140000", "142327.750000", "142328.360000", "142328.970000", "142329.580000", "142330.190000", "142330.800000", "142331.410000", "142332.020000", "142332.630000", "142333.240000", "142333.850000", "142334.460000", "142335.070000", "142335.680000", "142336.290000", "142336.900000", "142337.510000", "142338.120000", "142338.730000", "142339.340000", "142339.950000", "142340.560000", "142341.170000", "142341.780000", "142342.390000", "142343.000000", "142343.610000", "142344.220000", "142344.830000", "142345.440000", "142346.050000", "142346.660000", "142347.270000", "142347.880000", "142348.490000", "142349.100000", "142349.710000", "142350.320000", "142350.930000", "142351.540000", "142352.150000", "142352.760000", "142353.370000", "142353.980000", "142354.590000", "142355.200000", "142355.810000", "142356.420000", "142357.030000", "142357.640000", "142358.250000", "142358.860000", "142359.470000", "142400.080000", "142400.690000", "142401.300000", "142401.910000", "142402.520000", "142403.130000", "142403.740000", "142404.350000", "142404.960000", "142405.570000", "142406.180000", "142406.790000", "142407.400000", "142408.010000", "142408.620000", "142409.230000", "142409.840000", "142410.450000", "142411.060000", "142411.670000", "142412.280000", "142412.890000", "142413.500000", "142414.110000", "142414.720000", "142415.330000", "142415.940000", "142416.550000", "142417.160000", "142417.770000", "142418.380000", "142418.990000", "142419.600000", "142420.210000", "142420.820000", "142421.430000", "142422.040000", "142422.650000", "142423.260000", "142423.870000", "142424.480000", "142425.090000", "142425.700000", "142426.310000", "142426.920000", "142427.530000", "142428.140000", "142428.750000", "142429.360000", "142429.970000", "142430.580000", "142431.190000", "142431.800000", "142432.410000", "142433.020000", "142433.630000", "142434.240000", "142434.850000", "142435.460000", "142436.070000", "142436.680000", "142437.290000", "142437.900000", "142438.510000", "142439.120000", "142439.730000", "142440.340000", "142440.950000", "142441.560000", "142442.170000", "142442.780000", "142443.390000", "142444.000000", "142444.610000", "142445.220000", "142445.830000", "142446.440000", "142447.050000", "142447.660000", "142448.270000", "142448.880000", "142449.490000", "142450.100000", "142450.710000", "142451.320000", "142451.930000", "142452.540000", "142453.150000", "142453.760000", "142454.370000", "142454.980000", "142455.590000", "142456.200000", "142456.810000", "142457.420000", "142458.030000", "142458.640000", "142459.250000", "142459.860000", "142500.470000", "142501.080000", "142501.690000", "142502.300000", "142502.910000", "142503.520000", "142504.130000", "142504.740000", "142505.350000", "142505.960000", "142506.570000", "142507.180000", "142507.790000", "142508.400000", "142509.010000", "142509.620000", "142510.230000", "142510.840000", "142511.450000", "142512.060000", "142512.670000", "142513.280000", "142513.890000", "142514.500000", "142515.110000", "142515.720000", "142516.330000", "142516.940000", "142517.550000", "142518.160000", "142518.770000", "142519.380000", "142519.990000", "142520.600000", "142521.210000", "142521.820000", "142522.430000", "142523.040000", "142523.650000", "142524.260000", "142524.870000", "142525.480000", "142526.090000", "142526.700000", "142527.310000", "142527.920000", "142528.530000", "142529.140000", "142529.750000", "142530.360000", "142530.970000", "142531.580000", "142532.190000", "142532.800000", "142533.410000", "142534.020000", "142534.630000", "142535.240000", "142535.850000", "142536.460000", "142537.070000", "142537.680000", "142538.290000", "142538.900000", "142539.510000", "142540.120000", "142540.730000", "142541.340000", "142541.950000", "142542.560000", "142543.170000", "142543.780000", "142544.390000", "142545.000000", "142545.610000", "142546.220000", "142546.830000", "142547.440000", "142548.050000", "142548.660000", "142549.270000", "142549.880000", "142550.490000", "142551.100000", "142551.710000", "142552.320000", "142552.930000", "142553.540000", "142554.150000", "142554.760000", "142555.370000", "142555.980000", "142556.590000", "142557.200000", "142557.810000", "142558.420000", "142559.030000", "142559.640000", "142600.250000", "142600.860000", "142601.470000", "142602.080000", "142602.690000", "142603.300000", "142603.910000", "142604.520000", "142605.130000", "142605.740000", "142606.350000", "142606.960000", "142607.570000", "142608.180000", "142608.790000", "142609.400000", "142610.010000", "142610.620000", "142611.230000", "142611.840000", "142612.450000", "142613.060000", "142613.670000", "142614.280000", "142614.890000", "142615.500000", "142616.110000", "142616.720000", "142617.330000", "142617.940000", "142618.550000", "142619.160000", "142619.770000", "142620.380000", "142620.990000", "142621.600000", "142622.210000", "142622.820000", "142623.430000", "142624.040000", "142624.650000", "142625.260000", "142625.870000", "142626.480000", "142627.090000", "142627.700000", "142628.310000", "142628.920000", "142629.530000", "142630.140000", "142630.750000", "142631.360000", "142631.970000", "142632.580000", "142633.190000", "142633.800000", "142634.410000", "142635.020000", "142635.630000", "142636.240000", "142636.850000", "142637.460000", "142638.070000", "142638.680000", "142639.290000", "142639.900000", "142640.510000", "142641.120000", "142641.730000", "142642.340000", "142642.950000", "142643.560000", "142644.170000", "142644.780000", "142645.390000", "142646.000000", "142646.610000", "142647.220000", "142647.830000", "142648.440000", "142649.050000", "142649.660000", "142650.270000", "142650.880000", "142651.490000", "142652.100000", "142652.710000", "142653.320000", "142653.930000", "142654.540000", "142655.150000", "142655.760000", "142656.370000", "142656.980000", "142657.590000", "142658.200000", "142658.810000", "142659.420000", "142700.030000", "142700.640000", "142701.250000", "142701.860000", "142702.470000"], "ContentTime": ["142256.195000", "142256.198000", "142256.200000", "142256.203000", "142256.205000", "142256.207000", "142256.214000", "142256.217000", "142256.219000", "142256.221000", "142256.224000", "142256.226000", "142256.228000", "142256.231000", "142256.233000", "142256.236000", "142256.238000", "142256.241000", "142256.243000", "142256.245000", "142256.248000", "142256.250000", "142256.252000", "142256.255000", "142256.257000", "142256.260000", "142256.262000", "142256.265000", "142256.267000", "142256.269000", "142256.272000", "142256.279000", "142256.281000", "142256.284000", "142256.286000", "142256.288000", "142256.291000", "142256.293000", "142256.296000", "142256.298000", "142256.301000", "142256.303000", "142256.305000", "142256.308000", "142256.310000", "142256.312000", "142256.315000", "142256.317000", "142256.319000", "142256.322000", "142256.324000", "142256.326000", "142316.190000", "142316.193000", "142316.196000", "142316.198000", "142316.200000", "142316.203000", "142316.205000", "142316.207000", "142316.210000", "142316.212000", "142316.214000", "142316.217000", "142316.219000", "142316.222000", "142316.224000", "142316.226000", "142316.229000", "142316.231000", "142316.233000", "142316.236000", "142316.240000", "142316.242000", "142316.245000", "142316.247000", "142316.249000", "142316.252000", "142316.254000", "142316.257000", "142316.259000", "142316.261000", "142316.264000", "142316.266000", "142316.269000", "142336.190000", "142336.193000", "142336.195000", "142336.197000", "142336.200000", "142336.202000", "142336.204000", "142336.207000", "142336.209000", "142336.212000", "142336.214000", "142336.216000", "142336.219000", "142336.221000", "142336.223000", "142336.226000", "142336.228000", "142336.231000", "142336.233000", "142336.235000", "142336.238000", "142336.240000", "142336.242000", "142336.245000", "142336.247000", "142336.249000", "142336.252000", "142336.254000", "142336.256000", "142336.259000", "142336.261000", "142336.264000", "142336.266000", "142356.191000", "142356.194000", "142356.196000", "142356.199000", "142356.201000", "142356.203000", "142356.239000", "142356.241000", "142356.244000", "142356.246000", "142356.248000", "142356.251000", "142356.253000", "142356.255000", "142356.258000", "142356.260000", "142356.262000", "142356.265000", "142356.267000", "142356.270000", "142356.272000", "142356.274000", "142356.277000", "142356.279000", "142356.282000", "142356.284000", "142356.287000", "142356.289000", "142356.291000", "142356.294000", "142356.296000", "142356.298000", "142416.191000", "142416.194000", "142416.196000", "142416.198000", "142416.201000", "142416.203000", "142416.206000", "142416.208000", "142416.210000", "142416.213000", "142416.215000", "142416.217000", "142416.220000", "142416.222000", "142416.225000", "142416.227000", "142416.229000", "142416.232000", "142416.234000", "142416.236000", "142416.239000", "142416.241000", "142416.243000", "142416.246000", "142416.248000", "142416.251000", "142416.253000", "142416.255000", "142416.258000", "142416.261000", "142416.263000", "142416.265000", "142416.268000", "142436.191000", "142436.194000", "142436.196000", "142436.199000", "142436.201000", "142436.203000", "142436.206000", "142436.208000", "142436.210000", "142436.213000", "142436.215000", "142436.218000", "142436.220000", "142436.222000", "142436.225000", "142436.227000", "142436.230000", "142436.232000", "142436.234000", "142436.237000", "142436.239000", "142436.241000", "142436.244000", "142436.246000", "142436.249000", "142436.251000", "142436.253000", "142436.256000", "142436.258000", "142436.260000", "142436.263000", "142436.265000", "142436.267000", "142456.191000", "142456.194000", "142456.196000", "142456.198000", "142456.201000", "142456.203000", "142456.205000", "142456.208000", "142456.210000", "142456.213000", "142456.215000", "142456.217000", "142456.220000", "142456.222000", "142456.224000", "142456.227000", "142456.229000", "142456.231000", "142456.234000", "142456.236000", "142456.239000", "142456.241000", "142456.243000", "142456.246000", "142456.248000", "142456.251000", "142456.253000", "142456.255000", "142456.258000", "142456.260000", "142456.262000", "142456.265000", "142456.267000", "142516.190000", "142516.193000", "142516.195000", "142516.198000", "142516.200000", "142516.203000", "142516.226000", "142516.228000", "142516.231000", "142516.233000", "142516.235000", "142516.238000", "142516.240000", "142516.242000", "142516.245000", "142516.247000", "142516.250000", "142516.252000", "142516.254000", "142516.257000", "142516.259000", "142516.262000", "142516.264000", "142516.269000", "142516.271000", "142516.273000", "142516.276000", "142516.278000", "142516.281000", "142516.283000", "142516.285000", "142516.288000", "142536.190000", "142536.193000", "142536.195000", "142536.198000", "142536.200000", "142536.202000", "142536.205000", "142536.207000", "142536.209000", "142536.212000", "142536.214000", "142536.217000", "142536.219000", "142536.221000", "142536.224000", "142536.226000", "142536.229000", "142536.231000", "142536.233000", "142536.236000", "142536.238000", "142536.240000", "142536.243000", "142536.251000", "142536.260000", "142536.262000", "142536.265000", "142536.267000", "142536.269000", "142536.272000", "142536.274000", "142536.276000", "142536.289000", "142556.190000", "142556.193000", "142556.195000", "142556.198000", "142556.200000", "142556.203000", "142556.205000", "142556.208000", "142556.210000", "142556.213000", "142556.215000", "142556.218000", "142556.220000", "142556.222000", "142556.225000", "142556.228000", "142556.230000", "142556.232000", "142556.235000", "142556.237000", "142556.239000", "142556.242000", "142556.244000", "142556.247000", "142556.249000", "142556.251000", "142556.254000", "142556.256000", "142556.259000", "142556.261000", "142556.263000", "142556.266000", "142556.268000", "142616.191000", "142616.194000", "142616.196000", "142616.199000", "142616.201000", "142616.203000", "142616.206000", "142616.208000", "142616.210000", "142616.213000", "142616.215000", "142616.218000", "142616.220000", "142616.222000", "142616.225000", "142616.227000", "142616.233000", "142616.236000", "142616.238000", "142616.241000", "142616.243000", "142616.245000", "142616.248000", "142616.250000", "142616.252000", "142616.255000", "142616.257000", "142616.259000", "142616.262000", "142616.264000", "142616.267000", "142616.269000", "142616.271000", "142636.191000", "142636.194000", "142636.196000", "142636.199000", "142636.201000", "142636.203000", "142636.206000", "142636.208000", "142636.210000", "142636.213000", "142636.215000", "142636.218000", "142636.220000", "142636.222000", "142636.225000", "142636.227000", "142636.230000", "142636.232000", "142636.234000", "142636.237000", "142636.239000", "142636.242000", "142636.244000", "142636.246000", "142636.249000", "142636.251000", "142636.254000", "142636.256000", "142636.259000", "142636.261000", "142636.263000", "142636.266000", "142636.268000", "142656.191000", "142656.194000", "142656.196000", "142656.198000", "142656.201000", "142656.203000", "142656.206000", "142656.208000", "142656.210000", "142656.213000", "142656.215000", "142656.217000", "142656.220000", "142656.222000", "142656.225000", "142656.227000", "142656.230000", "142656.233000", "142656.235000", "142656.237000", "142656.240000", "142656.244000", "142656.247000", "142656.249000", "142656.251000", "142656.254000", "142656.256000", "142656.259000", "142656.261000", "142656.263000", "142656.266000", "142656.268000", "142704.218000", "142704.221000", "142704.223000", "142704.226000", "142704.228000", "142704.231000", "142704.233000", "142704.236000", "142704.238000", "142704.240000", "142704.243000", "142704.246000", "142704.248000"], "InstanceCreationTime": ["142256.195000", "142256.198000", "142256.200000", "142256.203000", "142256.205000", "142256.207000", "142256.214000", "142256.217000", "142256.219000", "142256.221000", "142256.224000", "142256.226000", "142256.228000", "142256.231000", "142256.233000", "142256.236000", "142256.238000", "142256.241000", "142256.243000", "142256.245000", "142256.248000", "142256.250000", "142256.252000", "142256.255000", "142256.257000", "142256.260000", "142256.262000", "142256.265000", "142256.267000", "142256.269000", "142256.272000", "142256.279000", "142256.281000", "142256.284000", "142256.286000", "142256.288000", "142256.291000", "142256.293000", "142256.296000", "142256.298000", "142256.301000", "142256.303000", "142256.305000", "142256.308000", "142256.310000", "142256.312000", "142256.315000", "142256.317000", "142256.319000", "142256.322000", "142256.324000", "142256.326000", "142316.190000", "142316.193000", "142316.196000", "142316.198000", "142316.200000", "142316.203000", "142316.205000", "142316.207000", "142316.210000", "142316.212000", "142316.214000", "142316.217000", "142316.219000", "142316.222000", "142316.224000", "142316.226000", "142316.229000", "142316.231000", "142316.233000", "142316.236000", "142316.240000", "142316.242000", "142316.245000", "142316.247000", "142316.249000", "142316.252000", "142316.254000", "142316.257000", "142316.259000", "142316.261000", "142316.264000", "142316.266000", "142316.269000", "142336.190000", "142336.193000", "142336.195000", "142336.197000", "142336.200000", "142336.202000", "142336.204000", "142336.207000", "142336.209000", "142336.212000", "142336.214000", "142336.216000", "142336.219000", "142336.221000", "142336.223000", "142336.226000", "142336.228000", "142336.231000", "142336.233000", "142336.235000", "142336.238000", "142336.240000", "142336.242000", "142336.245000", "142336.247000", "142336.249000", "142336.252000", "142336.254000", "142336.256000", "142336.259000", "142336.261000", "142336.264000", "142336.266000", "142356.191000", "142356.194000", "142356.196000", "142356.199000", "142356.201000", "142356.203000", "142356.239000", "142356.241000", "142356.244000", "142356.246000", "142356.248000", "142356.251000", "142356.253000", "142356.255000", "142356.258000", "142356.260000", "142356.262000", "142356.265000", "142356.267000", "142356.270000", "142356.272000", "142356.274000", "142356.277000", "142356.279000", "142356.282000", "142356.284000", "142356.287000", "142356.289000", "142356.291000", "142356.294000", "142356.296000", "142356.298000", "142416.191000", "142416.194000", "142416.196000", "142416.198000", "142416.201000", "142416.203000", "142416.206000", "142416.208000", "142416.210000", "142416.213000", "142416.215000", "142416.217000", "142416.220000", "142416.222000", "142416.225000", "142416.227000", "142416.229000", "142416.232000", "142416.234000", "142416.236000", "142416.239000", "142416.241000", "142416.243000", "142416.246000", "142416.248000", "142416.251000", "142416.253000", "142416.255000", "142416.258000", "142416.261000", "142416.263000", "142416.265000", "142416.268000", "142436.191000", "142436.194000", "142436.196000", "142436.199000", "142436.201000", "142436.203000", "142436.206000", "142436.208000", "142436.210000", "142436.213000", "142436.215000", "142436.218000", "142436.220000", "142436.222000", "142436.225000", "142436.227000", "142436.230000", "142436.232000", "142436.234000", "142436.237000", "142436.239000", "142436.241000", "142436.244000", "142436.246000", "142436.249000", "142436.251000", "142436.253000", "142436.256000", "142436.258000", "142436.260000", "142436.263000", "142436.265000", "142436.267000", "142456.191000", "142456.194000", "142456.196000", "142456.198000", "142456.201000", "142456.203000", "142456.205000", "142456.208000", "142456.210000", "142456.213000", "142456.215000", "142456.217000", "142456.220000", "142456.222000", "142456.224000", "142456.227000", "142456.229000", "142456.231000", "142456.234000", "142456.236000", "142456.239000", "142456.241000", "142456.243000", "142456.246000", "142456.248000", "142456.251000", "142456.253000", "142456.255000", "142456.258000", "142456.260000", "142456.262000", "142456.265000", "142456.267000", "142516.190000", "142516.193000", "142516.195000", "142516.198000", "142516.200000", "142516.203000", "142516.226000", "142516.228000", "142516.231000", "142516.233000", "142516.235000", "142516.238000", "142516.240000", "142516.242000", "142516.245000", "142516.247000", "142516.250000", "142516.252000", "142516.254000", "142516.257000", "142516.259000", "142516.262000", "142516.264000", "142516.269000", "142516.271000", "142516.273000", "142516.276000", "142516.278000", "142516.281000", "142516.283000", "142516.285000", "142516.288000", "142536.190000", "142536.193000", "142536.195000", "142536.198000", "142536.200000", "142536.202000", "142536.205000", "142536.207000", "142536.209000", "142536.212000", "142536.214000", "142536.217000", "142536.219000", "142536.221000", "142536.224000", "142536.226000", "142536.229000", "142536.231000", "142536.233000", "142536.236000", "142536.238000", "142536.240000", "142536.243000", "142536.251000", "142536.260000", "142536.262000", "142536.265000", "142536.267000", "142536.269000", "142536.272000", "142536.274000", "142536.276000", "142536.289000", "142556.190000", "142556.193000", "142556.195000", "142556.198000", "142556.200000", "142556.203000", "142556.205000", "142556.208000", "142556.210000", "142556.213000", "142556.215000", "142556.218000", "142556.220000", "142556.222000", "142556.225000", "142556.228000", "142556.230000", "142556.232000", "142556.235000", "142556.237000", "142556.239000", "142556.242000", "142556.244000", "142556.247000", "142556.249000", "142556.251000", "142556.254000", "142556.256000", "142556.259000", "142556.261000", "142556.263000", "142556.266000", "142556.268000", "142616.191000", "142616.194000", "142616.196000", "142616.199000", "142616.201000", "142616.203000", "142616.206000", "142616.208000", "142616.210000", "142616.213000", "142616.215000", "142616.218000", "142616.220000", "142616.222000", "142616.225000", "142616.227000", "142616.233000", "142616.236000", "142616.238000", "142616.241000", "142616.243000", "142616.245000", "142616.248000", "142616.250000", "142616.252000", "142616.255000", "142616.257000", "142616.259000", "142616.262000", "142616.264000", "142616.267000", "142616.269000", "142616.271000", "142636.191000", "142636.194000", "142636.196000", "142636.199000", "142636.201000", "142636.203000", "142636.206000", "142636.208000", "142636.210000", "142636.213000", "142636.215000", "142636.218000", "142636.220000", "142636.222000", "142636.225000", "142636.227000", "142636.230000", "142636.232000", "142636.234000", "142636.237000", "142636.239000", "142636.242000", "142636.244000", "142636.246000", "142636.249000", "142636.251000", "142636.254000", "142636.256000", "142636.259000", "142636.261000", "142636.263000", "142636.266000", "142636.268000", "142656.191000", "142656.194000", "142656.196000", "142656.198000", "142656.201000", "142656.203000", "142656.206000", "142656.208000", "142656.210000", "142656.213000", "142656.215000", "142656.217000", "142656.220000", "142656.222000", "142656.225000", "142656.227000", "142656.230000", "142656.233000", "142656.235000", "142656.237000", "142656.240000", "142656.244000", "142656.247000", "142656.249000", "142656.251000", "142656.254000", "142656.256000", "142656.259000", "142656.261000", "142656.263000", "142656.266000", "142656.268000", "142704.218000", "142704.221000", "142704.223000", "142704.22600