{
    "AcquisitionMatrixPE": 64,
    "AcquisitionNumber": 1,
    "AcquisitionTime": "11:29:40.707500",
    "BandwidthPerPixelPhaseEncode": 28.935,
    "BaseResolution": 64,
    "BodyPartExamined": "BRAIN",
    "CoilString": "HC2_4_6_7;SC",
    "ConsistencyInfo": "N4_VE11E_LATEST_20181129",
    "ConversionSoftware": "dcm2niix",
    "ConversionSoftwareVersion": "v1.0.20190902",
    "DerivedVendorReportedEchoSpacing": 0.000540003,
    "DeviceSerialNumber": "166182",
    "DwellTime": 3.4e-06,
    "EchoTime": 0.032,
    "EchoTrainLength": 64,
    "EffectiveEchoSpacing": 0.000540003,
    "FlipAngle": 40,
    "ImageOrientationPatientDICOM": [
        0.997677,
        -0.00210529,
        -0.0680883,
        -0.0036567,
        0.996426,
        -0.08439
    ],
    "ImageType": [
        "ORIGINAL",
        "PRIMARY",
        "M",
        "ND",
        "NORM",
        "MOSAIC"
    ],
    "ImagingFrequency": 123.257,
    "InPlanePhaseEncodingDirectionDICOM": "COL",
    "InstitutionAddress": "PEARSE_STREET_._City_District_IE_D2",
    "InstitutionName": "TCIN",
    "InstitutionalDepartmentName": "MRI",
    "MRAcquisitionType": "2D",
    "MagneticFieldStrength": 3,
    "Manufacturer": "Siemens",
    "ManufacturersModelName": "Prisma",
    "Modality": "MR",
    "MultibandAccelerationFactor": 4,
    "PartialFourier": 1,
    "PatientPosition": "HFS",
    "PercentPhaseFOV": 100,
    "PhaseEncodingDirection": "j-",
    "PhaseEncodingSteps": 64,
    "PhaseResolution": 1,
    "PixelBandwidth": 2300,
    "ProcedureStepDescription": "Rhodri_Head_BOLD",
    "ProtocolName": "cmrr_mbep2d_bold_Pictures_AP",
    "PulseSequenceDetails": "%SiemensSeq%_ep2d_bold",
    "ReceiveCoilActiveElements": "HC2,4,6,7;SC",
    "ReceiveCoilName": "HeadNeck_64",
    "ReconMatrixPE": 64,
    "RefLinesPE": 12,
    "RepetitionTime": 0.61,
    "SAR": 0.291265,
    "ScanOptions": "FS",
    "ScanningSequence": "EP",
    "SequenceName": "_epfid2d1_64",
    "SequenceVariant": "SK",
    "SeriesDescription": "cmrr_mbep2d_bold_Pictures_AP",
    "SeriesNumber": 10,
    "ShimSetting": [
        -3666,
        -7374,
        3771,
        959,
        -31,
        -157,
        -136,
        -262
    ],
    "SliceThickness": 3,
    "SliceTiming": [
        0.2625,
        0,
        0.33,
        0.0675,
        0.395,
        0.1325,
        0.46,
        0.1975,
        0.525,
        0.2625,
        0,
        0.33,
        0.0675,
        0.395,
        0.1325,
        0.46,
        0.1975,
        0.525,
        0.2625,
        0,
        0.33,
        0.0675,
        0.395,
        0.1325,
        0.46,
        0.1975,
        0.525,
        0.2625,
        0,
        0.33,
        0.0675,
        0.395,
        0.1325,
        0.46,
        0.1975,
        0.525
    ],
    "SoftwareVersions": "syngo_MR_E11",
    "SpacingBetweenSlices": 3.3,
    "StationName": "AWP166182",
    "TaskName": "pictures",
    "TotalReadoutTime": 0.0340202,
    "TxRefAmp": 235.996,
    "dcmmeta_affine": [
        [
            -2.9930312633514404,
            -0.01097009889781475,
            -0.22447456419467926,
            98.7822036743164
        ],
        [
            0.006315870676189661,
            2.9892783164978027,
            -0.2786618173122406,
            -100.78484344482422
        ],
        [
            -0.2042648196220398,
            0.25317010283470154,
            3.2805423736572266,
            -97.22821044921875
        ],
        [
            0.0,
            0.0,
            0.0,
            1.0
        ]
    ],
    "dcmmeta_reorient_transform": [
        [
            0.0,
            -1.0,
            0.0,
            63.0
        ],
        [
            1.0,
            0.0,
            0.0,
            0.0
        ],
        [
            0.0,
            0.0,
            1.0,
            0.0
        ],
        [
            0.0,
            0.0,
            0.0,
            1.0
        ]
    ],
    "dcmmeta_shape": [
        64,
        64,
        36,
        510
    ],
    "dcmmeta_slice_dim": 2,
    "dcmmeta_version": 0.6,
    "global": {
        "const": {
            "AcquisitionMatrix": [
                64,
                0,
                0,
                64
            ],
            "AngioFlag": "N",
            "BitsAllocated": 16,
            "BitsStored": 12,
            "BodyPartExamined": "BRAIN",
            "Columns": 384,
            "EchoNumbers": 1,
            "EchoTime": 32.0,
            "EchoTrainLength": 64,
            "FlipAngle": 40.0,
            "HighBit": 11,
            "ImageOrientationPatient": [
                0.99767707947083,
                -0.0021052902439,
                -0.0680882724963,
                -0.003656699647,
                0.99642608903715,
                -0.0843900327871
            ],
            "ImagePositionPatient": [
                -575.22086772482,
                -564.81367094734,
                -8.0889085102283
            ],
            "ImageType": [
                "ORIGINAL",
                "PRIMARY",
                "M",
                "ND",
                "NORM",
                "MOSAIC"
            ],
            "ImagedNucleus": "1H",
            "ImagingFrequency": 123.257317,
            "InPlanePhaseEncodingDirection": "COL",
            "MRAcquisitionType": "2D",
            "MagneticFieldStrength": 3.0,
            "Manufacturer": "SIEMENS",
            "ManufacturerModelName": "Prisma",
            "Modality": "MR",
            "NumberOfAverages": 1.0,
            "NumberOfPhaseEncodingSteps": 64,
            "PercentPhaseFieldOfView": 100.0,
            "PercentSampling": 100.0,
            "PerformedProcedureStepStartTime": "110517.761000",
            "PhotometricInterpretation": "MONOCHROME2",
            "PixelBandwidth": 2300.0,
            "PixelRepresentation": 0,
            "PixelSpacing": [
                3.0,
                3.0
            ],
            "ProtocolName": "cmrr_mbep2d_bold_Pictures_AP",
            "RepetitionTime": 610.0,
            "Rows": 384,
            "SAR": 0.29126533002229,
            "SamplesPerPixel": 1,
            "ScanOptions": "FS",
            "ScanningSequence": "EP",
            "SequenceName": "*epfid2d1_64",
            "SequenceVariant": "SK",
            "SeriesDescription": "cmrr_mbep2d_bold_Pictures_AP",
            "SeriesNumber": 10,
            "SeriesTime": "113011.901000",
            "SliceLocation": -94.863780906201,
            "SliceThickness": 3.0,
            "SmallestImagePixelValue": 0,
            "SoftwareVersions": "syngo MR E11",
            "SpacingBetweenSlices": 3.2999999768702,
            "SpecificCharacterSet": "ISO_IR 100",
            "StudyID": "1",
            "StudyTime": "110517.640000",
            "TransmitCoilName": "Body",
            "VariableFlipAngleFlag": "N",
            "WindowCenterWidthExplanation": "Algo1"
        },
        "slices": {}
    },
    "time": {
        "samples": {
            "AcquisitionNumber": [
                1,
                2,
                3,
                4,
                5,
                6,
                7,
                8,
                9,
                10,
                11,
                12,
                13,
                14,
                15,
                16,
                17,
                18,
                19,
                20,
                21,
                22,
                23,
                24,
                25,
                26,
                27,
                28,
                29,
                30,
                31,
                32,
                33,
                34,
                35,
                36,
                37,
                38,
                39,
                40,
                41,
                42,
                43,
                44,
                45,
                46,
                47,
                48,
                49,
                50,
                51,
                52,
                53,
                54,
                55,
                56,
                57,
                58,
                59,
                60,
                61,
                62,
                63,
                64,
                65,
                66,
                67,
                68,
                69,
                70,
                71,
                72,
                73,
                74,
                75,
                76,
                77,
                78,
                79,
                80,
                81,
                82,
                83,
                84,
                85,
                86,
                87,
                88,
                89,
                90,
                91,
                92,
                93,
                94,
                95,
                96,
                97,
                98,
                99,
                100,
                101,
                102,
                103,
                104,
                105,
                106,
                107,
                108,
                109,
                110,
                111,
                112,
                113,
                114,
                115,
                116,
                117,
                118,
                119,
                120,
                121,
                122,
                123,
                124,
                125,
                126,
                127,
                128,
                129,
                130,
                131,
                132,
                133,
                134,
                135,
                136,
                137,
                138,
                139,
                140,
                141,
                142,
                143,
                144,
                145,
                146,
                147,
                148,
                149,
                150,
                151,
                152,
                153,
                154,
                155,
                156,
                157,
                158,
                159,
                160,
                161,
                162,
                163,
                164,
                165,
                166,
                167,
                168,
                169,
                170,
                171,
                172,
                173,
                174,
                175,
                176,
                177,
                178,
                179,
                180,
                181,
                182,
                183,
                184,
                185,
                186,
                187,
                188,
                189,
                190,
                191,
                192,
                193,
                194,
                195,
                196,
                197,
                198,
                199,
                200,
                201,
                202,
                203,
                204,
                205,
                206,
                207,
                208,
                209,
                210,
                211,
                212,
                213,
                214,
                215,
                216,
                217,
                218,
                219,
                220,
                221,
                222,
                223,
                224,
                225,
                226,
                227,
                228,
                229,
                230,
                231,
                232,
                233,
                234,
                235,
                236,
                237,
                238,
                239,
                240,
                241,
                242,
                243,
                244,
                245,
                246,
                247,
                248,
                249,
                250,
                251,
                252,
                253,
                254,
                255,
                256,
                257,
                258,
                259,
                260,
                261,
                262,
                263,
                264,
                265,
                266,
                267,
                268,
                269,
                270,
                271,
                272,
                273,
                274,
                275,
                276,
                277,
                278,
                279,
                280,
                281,
                282,
                283,
                284,
                285,
                286,
                287,
                288,
                289,
                290,
                291,
                292,
                293,
                294,
                295,
                296,
                297,
                298,
                299,
                300,
                301,
                302,
                303,
                304,
                305,
                306,
                307,
                308,
                309,
                310,
                311,
                312,
                313,
                314,
                315,
                316,
                317,
                318,
                319,
                320,
                321,
                322,
                323,
                324,
                325,
                326,
                327,
                328,
                329,
                330,
                331,
                332,
                333,
                334,
                335,
                336,
                337,
                338,
                339,
                340,
                341,
                342,
                343,
                344,
                345,
                346,
                347,
                348,
                349,
                350,
                351,
                352,
                353,
                354,
                355,
                356,
                357,
                358,
                359,
                360,
                361,
                362,
                363,
                364,
                365,
                366,
                367,
                368,
                369,
                370,
                371,
                372,
                373,
                374,
                375,
                376,
                377,
                378,
                379,
                380,
                381,
                382,
                383,
                384,
                385,
                386,
                387,
                388,
                389,
                390,
                391,
                392,
                393,
                394,
                395,
                396,
                397,
                398,
                399,
                400,
                401,
                402,
                403,
                404,
                405,
                406,
                407,
                408,
                409,
                410,
                411,
                412,
                413,
                414,
                415,
                416,
                417,
                418,
                419,
                420,
                421,
                422,
                423,
                424,
                425,
                426,
                427,
                428,
                429,
                430,
                431,
                432,
                433,
                434,
                435,
                436,
                437,
                438,
                439,
                440,
                441,
                442,
                443,
                444,
                445,
                446,
                447,
                448,
                449,
                450,
                451,
                452,
                453,
                454,
                455,
                456,
                457,
                458,
                459,
                460,
                461,
                462,
                463,
                464,
                465,
                466,
                467,
                468,
                469,
                470,
                471,
                472,
                473,
                474,
                475,
                476,
                477,
                478,
                479,
                480,
                481,
                482,
                483,
                484,
                485,
                486,
                487,
                488,
                489,
                490,
                491,
                492,
                493,
                494,
                495,
                496,
                497,
                498,
                499,
                500,
                501,
                502,
                503,
                504,
                505,
                506,
                507,
                508,
                509,
                510
            ],
            "AcquisitionTime": [
                "112940.707500",
                "112941.317500",
                "112941.927500",
                "112942.537500",
                "112943.147500",
                "112943.757500",
                "112944.367500",
                "112944.977500",
                "112945.587500",
                "112946.197500",
                "112946.807500",
                "112947.417500",
                "112948.027500",
                "112948.637500",
                "112949.247500",
                "112949.857500",
                "112950.467500",
                "112951.077500",
                "112951.687500",
                "112952.297500",
                "112952.907500",
                "112953.517500",
                "112954.127500",
                "112954.737500",
                "112955.347500",
                "112955.957500",
                "112956.567500",
                "112957.177500",
                "112957.787500",
                "112958.397500",
                "112959.007500",
                "112959.617500",
                "113000.227500",
                "113000.837500",
                "113001.447500",
                "113002.057500",
                "113002.667500",
                "113003.277500",
                "113003.887500",
                "113004.497500",
                "113005.107500",
                "113005.717500",
                "113006.327500",
                "113006.937500",
                "113007.547500",
                "113008.157500",
                "113008.767500",
                "113009.377500",
                "113009.987500",
                "113010.597500",
                "113011.207500",
                "113011.817500",
                "113012.427500",
                "113013.037500",
                "113013.647500",
                "113014.257500",
                "113014.867500",
                "113015.477500",
                "113016.087500",
                "113016.697500",
                "113017.307500",
                "113017.917500",
                "113018.527500",
                "113019.137500",
                "113019.747500",
                "113020.357500",
                "113020.967500",
                "113021.577500",
                "113022.187500",
                "113022.797500",
                "113023.407500",
                "113024.017500",
                "113024.627500",
                "113025.237500",
                "113025.847500",
                "113026.457500",
                "113027.067500",
                "113027.677500",
                "113028.287500",
                "113028.897500",
                "113029.507500",
                "113030.117500",
                "113030.727500",
                "113031.337500",
                "113031.947500",
                "113032.557500",
                "113033.167500",
                "113033.777500",
                "113034.387500",
                "113034.997500",
                "113035.607500",
                "113036.217500",
                "113036.827500",
                "113037.437500",
                "113038.047500",
                "113038.657500",
                "113039.267500",
                "113039.877500",
                "113040.487500",
                "113041.097500",
                "113041.707500",
                "113042.317500",
                "113042.927500",
                "113043.537500",
                "113044.147500",
                "113044.757500",
                "113045.367500",
                "113045.977500",
                "113046.587500",
                "113047.197500",
                "113047.807500",
                "113048.417500",
                "113049.027500",
                "113049.637500",
                "113050.247500",
                "113050.857500",
                "113051.467500",
                "113052.077500",
                "113052.687500",
                "113053.297500",
                "113053.907500",
                "113054.517500",
                "113055.127500",
                "113055.737500",
                "113056.347500",
                "113056.957500",
                "113057.567500",
                "113058.177500",
                "113058.787500",
                "113059.397500",
                "113100.007500",
                "113100.617500",
                "113101.227500",
                "113101.837500",
                "113102.447500",
                "113103.057500",
                "113103.667500",
                "113104.277500",
                "113104.887500",
                "113105.497500",
                "113106.107500",
                "113106.717500",
                "113107.327500",
                "113107.937500",
                "113108.547500",
                "113109.157500",
                "113109.767500",
                "113110.377500",
                "113110.987500",
                "113111.597500",
                "113112.207500",
                "113112.817500",
                "113113.427500",
                "113114.037500",
                "113114.647500",
                "113115.257500",
                "113115.867500",
                "113116.477500",
                "113117.087500",
                "113117.697500",
                "113118.307500",
                "113118.917500",
                "113119.527500",
                "113120.137500",
                "113120.747500",
                "113121.357500",
                "113121.967500",
                "113122.577500",
                "113123.187500",
                "113123.797500",
                "113124.407500",
                "113125.017500",
                "113125.627500",
                "113126.237500",
                "113126.847500",
                "113127.457500",
                "113128.067500",
                "113128.677500",
                "113129.287500",
                "113129.897500",
                "113130.507500",
                "113131.117500",
                "113131.727500",
                "113132.337500",
                "113132.947500",
                "113133.557500",
                "113134.167500",
                "113134.777500",
                "113135.387500",
                "113135.997500",
                "113136.607500",
                "113137.217500",
                "113137.827500",
                "113138.437500",
                "113139.047500",
                "113139.657500",
                "113140.267500",
                "113140.877500",
                "113141.487500",
                "113142.097500",
                "113142.707500",
                "113143.317500",
                "113143.927500",
                "113144.537500",
                "113145.147500",
                "113145.757500",
                "113146.367500",
                "113146.977500",
                "113147.587500",
                "113148.197500",
                "113148.807500",
                "113149.417500",
                "113150.027500",
                "113150.637500",
                "113151.247500",
                "113151.857500",
                "113152.467500",
                "113153.077500",
                "113153.687500",
                "113154.297500",
                "113154.907500",
                "113155.517500",
                "113156.127500",
                "113156.737500",
                "113157.347500",
                "113157.957500",
                "113158.567500",
                "113159.177500",
                "113159.787500",
                "113200.397500",
                "113201.007500",
                "113201.617500",
                "113202.227500",
                "113202.837500",
                "113203.447500",
                "113204.057500",
                "113204.667500",
                "113205.277500",
                "113205.887500",
                "113206.497500",
                "113207.107500",
                "113207.717500",
                "113208.327500",
                "113208.937500",
                "113209.547500",
                "113210.157500",
                "113210.767500",
                "113211.377500",
                "113211.987500",
                "113212.597500",
                "113213.207500",
                "113213.817500",
                "113214.427500",
                "113215.037500",
                "113215.647500",
                "113216.257500",
                "113216.867500",
                "113217.477500",
                "113218.087500",
                "113218.697500",
                "113219.307500",
                "113219.917500",
                "113220.527500",
                "113221.137500",
                "113221.747500",
                "113222.357500",
                "113222.967500",
                "113223.577500",
                "113224.187500",
                "113224.797500",
                "113225.407500",
                "113226.017500",
                "113226.627500",
                "113227.237500",
                "113227.847500",
                "113228.457500",
                "113229.067500",
                "113229.677500",
                "113230.287500",
                "113230.897500",
                "113231.507500",
                "113232.117500",
                "113232.727500",
                "113233.337500",
                "113233.947500",
                "113234.557500",
                "113235.167500",
                "113235.777500",
                "113236.387500",
                "113236.997500",
                "113237.607500",
                "113238.217500",
                "113238.827500",
                "113239.437500",
                "113240.047500",
                "113240.657500",
                "113241.267500",
                "113241.877500",
                "113242.487500",
                "113243.097500",
                "113243.707500",
                "113244.317500",
                "113244.927500",
                "113245.537500",
                "113246.147500",
                "113246.757500",
                "113247.367500",
                "113247.977500",
                "113248.587500",
                "113249.197500",
                "113249.807500",
                "113250.417500",
                "113251.027500",
                "113251.637500",
                "113252.247500",
                "113252.857500",
                "113253.467500",
                "113254.077500",
                "113254.687500",
                "113255.297500",
                "113255.907500",
                "113256.517500",
                "113257.127500",
                "113257.737500",
                "113258.347500",
                "113258.957500",
                "113259.567500",
                "113300.177500",
                "113300.787500",
                "113301.397500",
                "113302.007500",
                "113302.617500",
                "113303.227500",
                "113303.837500",
                "113304.447500",
                "113305.057500",
                "113305.667500",
                "113306.277500",
                "113306.887500",
                "113307.497500",
                "113308.107500",
                "113308.717500",
                "113309.327500",
                "113309.937500",
                "113310.547500",
                "113311.157500",
                "113311.767500",
                "113312.377500",
                "113312.987500",
                "113313.597500",
                "113314.207500",
                "113314.817500",
                "113315.427500",
                "113316.037500",
                "113316.647500",
                "113317.257500",
                "113317.867500",
                "113318.477500",
                "113319.087500",
                "113319.697500",
                "113320.307500",
                "113320.917500",
                "113321.527500",
                "113322.137500",
                "113322.747500",
                "113323.357500",
                "113323.967500",
                "113324.577500",
                "113325.187500",
                "113325.797500",
                "113326.407500",
                "113327.017500",
                "113327.627500",
                "113328.237500",
