{
    "AcquisitionMatrixPE": 64,
    "AcquisitionNumber": 1,
    "AcquisitionTime": "11:16:15.715000",
    "BandwidthPerPixelPhaseEncode": 28.935,
    "BaseResolution": 64,
    "BodyPartExamined": "BRAIN",
    "CoilString": "HC2_4_6_7;SC",
    "ConsistencyInfo": "N4_VE11E_LATEST_20181129",
    "ConversionSoftware": "dcm2niix",
    "ConversionSoftwareVersion": "v1.0.20190902",
    "DerivedVendorReportedEchoSpacing": 0.000540003,
    "DeviceSerialNumber": "166182",
    "DwellTime": 3.4e-06,
    "EchoTime": 0.032,
    "EchoTrainLength": 64,
    "EffectiveEchoSpacing": 0.000540003,
    "FlipAngle": 40,
    "ImageOrientationPatientDICOM": [
        0.997677,
        -0.00210529,
        -0.0680883,
        -0.0036567,
        0.996426,
        -0.08439
    ],
    "ImageType": [
        "ORIGINAL",
        "PRIMARY",
        "M",
        "ND",
        "NORM",
        "MOSAIC"
    ],
    "ImagingFrequency": 123.257,
    "InPlanePhaseEncodingDirectionDICOM": "COL",
    "InstitutionAddress": "PEARSE_STREET_._City_District_IE_D2",
    "InstitutionName": "TCIN",
    "InstitutionalDepartmentName": "MRI",
    "MRAcquisitionType": "2D",
    "MagneticFieldStrength": 3,
    "Manufacturer": "Siemens",
    "ManufacturersModelName": "Prisma",
    "Modality": "MR",
    "MultibandAccelerationFactor": 4,
    "PartialFourier": 1,
    "PatientPosition": "HFS",
    "PercentPhaseFOV": 100,
    "PhaseEncodingDirection": "j-",
    "PhaseEncodingSteps": 64,
    "PhaseResolution": 1,
    "PixelBandwidth": 2300,
    "ProcedureStepDescription": "Rhodri_Head_BOLD",
    "ProtocolName": "cmrr_mbep2d_bold_Pictures_AP",
    "PulseSequenceDetails": "%SiemensSeq%_ep2d_bold",
    "ReceiveCoilActiveElements": "HC2,4,6,7;SC",
    "ReceiveCoilName": "HeadNeck_64",
    "ReconMatrixPE": 64,
    "RefLinesPE": 12,
    "RepetitionTime": 0.61,
    "SAR": 0.291265,
    "ScanOptions": "FS",
    "ScanningSequence": "EP",
    "SequenceName": "_epfid2d1_64",
    "SequenceVariant": "SK",
    "SeriesDescription": "cmrr_mbep2d_bold_Pictures_AP",
    "SeriesNumber": 8,
    "ShimSetting": [
        -3666,
        -7374,
        3771,
        959,
        -31,
        -157,
        -136,
        -262
    ],
    "SliceThickness": 3,
    "SliceTiming": [
        0.2625,
        0,
        0.3275,
        0.065,
        0.3925,
        0.1325,
        0.46,
        0.1975,
        0.525,
        0.2625,
        0,
        0.3275,
        0.065,
        0.3925,
        0.1325,
        0.46,
        0.1975,
        0.525,
        0.2625,
        0,
        0.3275,
        0.065,
        0.3925,
        0.1325,
        0.46,
        0.1975,
        0.525,
        0.2625,
        0,
        0.3275,
        0.065,
        0.3925,
        0.1325,
        0.46,
        0.1975,
        0.525
    ],
    "SoftwareVersions": "syngo_MR_E11",
    "SpacingBetweenSlices": 3.3,
    "StationName": "AWP166182",
    "TaskName": "pictures",
    "TotalReadoutTime": 0.0340202,
    "TxRefAmp": 235.996,
    "dcmmeta_affine": [
        [
            -2.9930312633514404,
            -0.01097009889781475,
            -0.22447456419467926,
            98.7822036743164
        ],
        [
            0.006315870676189661,
            2.9892783164978027,
            -0.2786618173122406,
            -100.78484344482422
        ],
        [
            -0.2042648196220398,
            0.25317010283470154,
            3.2805423736572266,
            -97.22821044921875
        ],
        [
            0.0,
            0.0,
            0.0,
            1.0
        ]
    ],
    "dcmmeta_reorient_transform": [
        [
            0.0,
            -1.0,
            0.0,
            63.0
        ],
        [
            1.0,
            0.0,
            0.0,
            0.0
        ],
        [
            0.0,
            0.0,
            1.0,
            0.0
        ],
        [
            0.0,
            0.0,
            0.0,
            1.0
        ]
    ],
    "dcmmeta_shape": [
        64,
        64,
        36,
        510
    ],
    "dcmmeta_slice_dim": 2,
    "dcmmeta_version": 0.6,
    "global": {
        "const": {
            "AcquisitionMatrix": [
                64,
                0,
                0,
                64
            ],
            "AngioFlag": "N",
            "BitsAllocated": 16,
            "BitsStored": 12,
            "BodyPartExamined": "BRAIN",
            "Columns": 384,
            "EchoNumbers": 1,
            "EchoTime": 32.0,
            "EchoTrainLength": 64,
            "FlipAngle": 40.0,
            "HighBit": 11,
            "ImageOrientationPatient": [
                0.99767707947083,
                -0.0021052902439,
                -0.0680882724963,
                -0.003656699647,
                0.99642608903715,
                -0.0843900327871
            ],
            "ImagePositionPatient": [
                -575.22086772482,
                -564.81367094734,
                -8.0889085102283
            ],
            "ImageType": [
                "ORIGINAL",
                "PRIMARY",
                "M",
                "ND",
                "NORM",
                "MOSAIC"
            ],
            "ImagedNucleus": "1H",
            "ImagingFrequency": 123.257311,
            "InPlanePhaseEncodingDirection": "COL",
            "MRAcquisitionType": "2D",
            "MagneticFieldStrength": 3.0,
            "Manufacturer": "SIEMENS",
            "ManufacturerModelName": "Prisma",
            "Modality": "MR",
            "NumberOfAverages": 1.0,
            "NumberOfPhaseEncodingSteps": 64,
            "PercentPhaseFieldOfView": 100.0,
            "PercentSampling": 100.0,
            "PerformedProcedureStepStartTime": "110517.761000",
            "PhotometricInterpretation": "MONOCHROME2",
            "PixelBandwidth": 2300.0,
            "PixelRepresentation": 0,
            "PixelSpacing": [
                3.0,
                3.0
            ],
            "ProtocolName": "cmrr_mbep2d_bold_Pictures_AP",
            "RepetitionTime": 610.0,
            "Rows": 384,
            "SAR": 0.29126533002229,
            "SamplesPerPixel": 1,
            "ScanOptions": "FS",
            "ScanningSequence": "EP",
            "SequenceName": "*epfid2d1_64",
            "SequenceVariant": "SK",
            "SeriesDescription": "cmrr_mbep2d_bold_Pictures_AP",
            "SeriesNumber": 8,
            "SeriesTime": "111633.036000",
            "SliceLocation": -94.863780906201,
            "SliceThickness": 3.0,
            "SmallestImagePixelValue": 0,
            "SoftwareVersions": "syngo MR E11",
            "SpacingBetweenSlices": 3.2999999768702,
            "SpecificCharacterSet": "ISO_IR 100",
            "StudyID": "1",
            "StudyTime": "110517.640000",
            "TransmitCoilName": "Body",
            "VariableFlipAngleFlag": "N",
            "WindowCenterWidthExplanation": "Algo1"
        },
        "slices": {}
    },
    "time": {
        "samples": {
            "AcquisitionNumber": [
                1,
                2,
                3,
                4,
                5,
                6,
                7,
                8,
                9,
                10,
                11,
                12,
                13,
                14,
                15,
                16,
                17,
                18,
                19,
                20,
                21,
                22,
                23,
                24,
                25,
                26,
                27,
                28,
                29,
                30,
                31,
                32,
                33,
                34,
                35,
                36,
                37,
                38,
                39,
                40,
                41,
                42,
                43,
                44,
                45,
                46,
                47,
                48,
                49,
                50,
                51,
                52,
                53,
                54,
                55,
                56,
                57,
                58,
                59,
                60,
                61,
                62,
                63,
                64,
                65,
                66,
                67,
                68,
                69,
                70,
                71,
                72,
                73,
                74,
                75,
                76,
                77,
                78,
                79,
                80,
                81,
                82,
                83,
                84,
                85,
                86,
                87,
                88,
                89,
                90,
                91,
                92,
                93,
                94,
                95,
                96,
                97,
                98,
                99,
                100,
                101,
                102,
                103,
                104,
                105,
                106,
                107,
                108,
                109,
                110,
                111,
                112,
                113,
                114,
                115,
                116,
                117,
                118,
                119,
                120,
                121,
                122,
                123,
                124,
                125,
                126,
                127,
                128,
                129,
                130,
                131,
                132,
                133,
                134,
                135,
                136,
                137,
                138,
                139,
                140,
                141,
                142,
                143,
                144,
                145,
                146,
                147,
                148,
                149,
                150,
                151,
                152,
                153,
                154,
                155,
                156,
                157,
                158,
                159,
                160,
                161,
                162,
                163,
                164,
                165,
                166,
                167,
                168,
                169,
                170,
                171,
                172,
                173,
                174,
                175,
                176,
                177,
                178,
                179,
                180,
                181,
                182,
                183,
                184,
                185,
                186,
                187,
                188,
                189,
                190,
                191,
                192,
                193,
                194,
                195,
                196,
                197,
                198,
                199,
                200,
                201,
                202,
                203,
                204,
                205,
                206,
                207,
                208,
                209,
                210,
                211,
                212,
                213,
                214,
                215,
                216,
                217,
                218,
                219,
                220,
                221,
                222,
                223,
                224,
                225,
                226,
                227,
                228,
                229,
                230,
                231,
                232,
                233,
                234,
                235,
                236,
                237,
                238,
                239,
                240,
                241,
                242,
                243,
                244,
                245,
                246,
                247,
                248,
                249,
                250,
                251,
                252,
                253,
                254,
                255,
                256,
                257,
                258,
                259,
                260,
                261,
                262,
                263,
                264,
                265,
                266,
                267,
                268,
                269,
                270,
                271,
                272,
                273,
                274,
                275,
                276,
                277,
                278,
                279,
                280,
                281,
                282,
                283,
                284,
                285,
                286,
                287,
                288,
                289,
                290,
                291,
                292,
                293,
                294,
                295,
                296,
                297,
                298,
                299,
                300,
                301,
                302,
                303,
                304,
                305,
                306,
                307,
                308,
                309,
                310,
                311,
                312,
                313,
                314,
                315,
                316,
                317,
                318,
                319,
                320,
                321,
                322,
                323,
                324,
                325,
                326,
                327,
                328,
                329,
                330,
                331,
                332,
                333,
                334,
                335,
                336,
                337,
                338,
                339,
                340,
                341,
                342,
                343,
                344,
                345,
                346,
                347,
                348,
                349,
                350,
                351,
                352,
                353,
                354,
                355,
                356,
                357,
                358,
                359,
                360,
                361,
                362,
                363,
                364,
                365,
                366,
                367,
                368,
                369,
                370,
                371,
                372,
                373,
                374,
                375,
                376,
                377,
                378,
                379,
                380,
                381,
                382,
                383,
                384,
                385,
                386,
                387,
                388,
                389,
                390,
                391,
                392,
                393,
                394,
                395,
                396,
                397,
                398,
                399,
                400,
                401,
                402,
                403,
                404,
                405,
                406,
                407,
                408,
                409,
                410,
                411,
                412,
                413,
                414,
                415,
                416,
                417,
                418,
                419,
                420,
                421,
                422,
                423,
                424,
                425,
                426,
                427,
                428,
                429,
                430,
                431,
                432,
                433,
                434,
                435,
                436,
                437,
                438,
                439,
                440,
                441,
                442,
                443,
                444,
                445,
                446,
                447,
                448,
                449,
                450,
                451,
                452,
                453,
                454,
                455,
                456,
                457,
                458,
                459,
                460,
                461,
                462,
                463,
                464,
                465,
                466,
                467,
                468,
                469,
                470,
                471,
                472,
                473,
                474,
                475,
                476,
                477,
                478,
                479,
                480,
                481,
                482,
                483,
                484,
                485,
                486,
                487,
                488,
                489,
                490,
                491,
                492,
                493,
                494,
                495,
                496,
                497,
                498,
                499,
                500,
                501,
                502,
                503,
                504,
                505,
                506,
                507,
                508,
                509,
                510
            ],
            "AcquisitionTime": [
                "111615.715000",
                "111616.325000",
                "111616.935000",
                "111617.545000",
                "111618.155000",
                "111618.765000",
                "111619.375000",
                "111619.985000",
                "111620.595000",
                "111621.205000",
                "111621.815000",
                "111622.425000",
                "111623.035000",
                "111623.645000",
                "111624.255000",
                "111624.865000",
                "111625.475000",
                "111626.085000",
                "111626.695000",
                "111627.305000",
                "111627.915000",
                "111628.525000",
                "111629.135000",
                "111629.745000",
                "111630.355000",
                "111630.965000",
                "111631.575000",
                "111632.185000",
                "111632.795000",
                "111633.405000",
                "111634.015000",
                "111634.625000",
                "111635.235000",
                "111635.845000",
                "111636.455000",
                "111637.065000",
                "111637.675000",
                "111638.285000",
                "111638.895000",
                "111639.505000",
                "111640.115000",
                "111640.725000",
                "111641.335000",
                "111641.945000",
                "111642.555000",
                "111643.165000",
                "111643.775000",
                "111644.385000",
                "111644.995000",
                "111645.605000",
                "111646.215000",
                "111646.825000",
                "111647.435000",
                "111648.045000",
                "111648.655000",
                "111649.265000",
                "111649.875000",
                "111650.485000",
                "111651.095000",
                "111651.705000",
                "111652.315000",
                "111652.925000",
                "111653.535000",
                "111654.145000",
                "111654.755000",
                "111655.365000",
                "111655.975000",
                "111656.585000",
                "111657.195000",
                "111657.805000",
                "111658.415000",
                "111659.025000",
                "111659.635000",
                "111700.245000",
                "111700.855000",
                "111701.465000",
                "111702.075000",
                "111702.685000",
                "111703.295000",
                "111703.905000",
                "111704.515000",
                "111705.125000",
                "111705.735000",
                "111706.345000",
                "111706.955000",
                "111707.565000",
                "111708.175000",
                "111708.785000",
                "111709.395000",
                "111710.005000",
                "111710.615000",
                "111711.225000",
                "111711.835000",
                "111712.445000",
                "111713.055000",
                "111713.665000",
                "111714.275000",
                "111714.885000",
                "111715.495000",
                "111716.105000",
                "111716.715000",
                "111717.325000",
                "111717.935000",
                "111718.545000",
                "111719.155000",
                "111719.765000",
                "111720.375000",
                "111720.985000",
                "111721.595000",
                "111722.205000",
                "111722.815000",
                "111723.425000",
                "111724.035000",
                "111724.645000",
                "111725.255000",
                "111725.865000",
                "111726.475000",
                "111727.085000",
                "111727.695000",
                "111728.305000",
                "111728.915000",
                "111729.525000",
                "111730.135000",
                "111730.745000",
                "111731.355000",
                "111731.965000",
                "111732.575000",
                "111733.185000",
                "111733.795000",
                "111734.405000",
                "111735.015000",
                "111735.625000",
                "111736.235000",
                "111736.845000",
                "111737.455000",
                "111738.065000",
                "111738.675000",
                "111739.285000",
                "111739.895000",
                "111740.505000",
                "111741.115000",
                "111741.725000",
                "111742.335000",
                "111742.945000",
                "111743.555000",
                "111744.165000",
                "111744.775000",
                "111745.385000",
                "111745.995000",
                "111746.605000",
                "111747.215000",
                "111747.825000",
                "111748.435000",
                "111749.045000",
                "111749.655000",
                "111750.265000",
                "111750.875000",
                "111751.485000",
                "111752.095000",
                "111752.705000",
                "111753.315000",
                "111753.925000",
                "111754.535000",
                "111755.145000",
                "111755.755000",
                "111756.365000",
                "111756.975000",
                "111757.585000",
                "111758.195000",
                "111758.805000",
                "111759.415000",
                "111800.025000",
                "111800.635000",
                "111801.245000",
                "111801.855000",
                "111802.465000",
                "111803.075000",
                "111803.685000",
                "111804.295000",
                "111804.905000",
                "111805.515000",
                "111806.125000",
                "111806.735000",
                "111807.345000",
                "111807.955000",
                "111808.565000",
                "111809.175000",
                "111809.785000",
                "111810.395000",
                "111811.005000",
                "111811.615000",
                "111812.225000",
                "111812.835000",
                "111813.445000",
                "111814.055000",
                "111814.665000",
                "111815.275000",
                "111815.885000",
                "111816.495000",
                "111817.105000",
                "111817.715000",
                "111818.325000",
                "111818.935000",
                "111819.545000",
                "111820.155000",
                "111820.765000",
                "111821.375000",
                "111821.985000",
                "111822.595000",
                "111823.205000",
                "111823.815000",
                "111824.425000",
                "111825.035000",
                "111825.645000",
                "111826.255000",
                "111826.865000",
                "111827.475000",
                "111828.085000",
                "111828.695000",
                "111829.305000",
                "111829.915000",
                "111830.525000",
                "111831.135000",
                "111831.745000",
                "111832.355000",
                "111832.965000",
                "111833.575000",
                "111834.185000",
                "111834.795000",
                "111835.405000",
                "111836.015000",
                "111836.625000",
                "111837.235000",
                "111837.845000",
                "111838.455000",
                "111839.065000",
                "111839.675000",
                "111840.285000",
                "111840.895000",
                "111841.505000",
                "111842.115000",
                "111842.725000",
                "111843.335000",
                "111843.945000",
                "111844.555000",
                "111845.165000",
                "111845.775000",
                "111846.385000",
                "111846.995000",
                "111847.605000",
                "111848.215000",
                "111848.825000",
                "111849.435000",
                "111850.045000",
                "111850.655000",
                "111851.265000",
                "111851.875000",
                "111852.485000",
                "111853.095000",
                "111853.705000",
                "111854.315000",
                "111854.925000",
                "111855.535000",
                "111856.145000",
                "111856.755000",
                "111857.365000",
                "111857.975000",
                "111858.585000",
                "111859.195000",
                "111859.805000",
                "111900.415000",
                "111901.025000",
                "111901.635000",
                "111902.245000",
                "111902.855000",
                "111903.465000",
                "111904.075000",
                "111904.685000",
                "111905.295000",
                "111905.905000",
                "111906.515000",
                "111907.125000",
                "111907.735000",
                "111908.345000",
                "111908.955000",
                "111909.565000",
                "111910.175000",
                "111910.785000",
                "111911.395000",
                "111912.005000",
                "111912.615000",
                "111913.225000",
                "111913.835000",
                "111914.445000",
                "111915.055000",
                "111915.665000",
                "111916.275000",
                "111916.885000",
                "111917.495000",
                "111918.105000",
                "111918.715000",
                "111919.325000",
                "111919.935000",
                "111920.545000",
                "111921.155000",
                "111921.765000",
                "111922.375000",
                "111922.985000",
                "111923.595000",
                "111924.205000",
                "111924.815000",
                "111925.425000",
                "111926.035000",
                "111926.645000",
                "111927.255000",
                "111927.865000",
                "111928.475000",
                "111929.085000",
                "111929.695000",
                "111930.305000",
                "111930.915000",
                "111931.525000",
                "111932.135000",
                "111932.745000",
                "111933.355000",
                "111933.965000",
                "111934.575000",
                "111935.185000",
                "111935.795000",
                "111936.405000",
                "111937.015000",
                "111937.625000",
                "111938.235000",
                "111938.845000",
                "111939.455000",
                "111940.065000",
                "111940.675000",
                "111941.285000",
                "111941.895000",
                "111942.505000",
                "111943.115000",
                "111943.725000",
                "111944.335000",
                "111944.945000",
                "111945.555000",
                "111946.165000",
                "111946.775000",
                "111947.385000",
                "111947.995000",
                "111948.605000",
                "111949.215000",
                "111949.825000",
                "111950.435000",
                "111951.045000",
                "111951.655000",
                "111952.265000",
                "111952.875000",
                "111953.485000",
                "111954.095000",
                "111954.705000",
                "111955.315000",
                "111955.925000",
                "111956.535000",
                "111957.145000",
                "111957.755000",
                "111958.365000",
                "111958.975000",
                "111959.585000",
                "112000.195000",
                "112000.805000",
                "112001.415000",
                "112002.025000",
                "112002.635000",
                "112003.245000",
