{"AcquisitionMatrixPE": 64, "AcquisitionNumber": 1, "AcquisitionTime": "15:17:47.710000", "BandwidthPerPixelPhaseEncode": 28.935, "BaseResolution": 64, "BodyPartExamined": "BRAIN", "CoilCombinationMethod": "Sum of Squares", "ConsistencyInfo": "N4_VE11E_LATEST_20181129", "ConversionSoftware": "dcm2niix", "ConversionSoftwareVersion": "v1.0.20230411", "DerivedVendorReportedEchoSpacing": 0.000540003, "DeviceSerialNumber": "166182", "DwellTime": 3.4e-06, "EchoTime": 0.032, "EchoTrainLength": 64, "EffectiveEchoSpacing": 0.000540003, "FlipAngle": 40, "HeudiconvVersion": "0.13.1", "ImageOrientationPatientDICOM": [0.99344, 0.0829985, -0.0786671, -0.0863906, 0.995428, -0.040739], "ImageOrientationText": "Tra>Sag(-4.3)>Cor(-2.7)", "ImageType": ["ORIGINAL", "PRIMARY", "M", "ND", "NORM", "MOSAIC"], "ImagingFrequency": 123.257445, "InPlanePhaseEncodingDirectionDICOM": "COL", "InstitutionAddress": "PEARSE STREET .,City,District,IE,D2", "InstitutionName": "TCIN", "InstitutionalDepartmentName": "MRI", "MRAcquisitionType": "2D", "MagneticFieldStrength": 3, "Manufacturer": "Siemens", "ManufacturersModelName": "Prisma", "Modality": "MR", "MultibandAccelerationFactor": 4, "NonlinearGradientCorrection": false, "PartialFourier": 1, "PatientPosition": "HFS", "PercentPhaseFOV": 100, "PercentSampling": 100, "PhaseEncodingDirection": "j-", "PhaseEncodingSteps": 64, "PhaseResolution": 1, "PixelBandwidth": 2300, "ProcedureStepDescription": "Rhodri^Head BOLD", "ProtocolName": "cmrr_mbep2d_bold_Pictures_AP", "PulseSequenceDetails": "%SiemensSeq%\\ep2d_bold", "ReceiveCoilActiveElements": "HC2,4,6,7;NC2;SC", "ReceiveCoilName": "SpecialPurpose_4", "ReconMatrixPE": 64, "RefLinesPE": 12, "RepetitionTime": 0.61, "SAR": 0.285989, "ScanOptions": "FS", "ScanningSequence": "EP", "SequenceName": "*epfid2d1_64", "SequenceVariant": "SK", "SeriesDescription": "cmrr_mbep2d_bold_Pictures_AP", "SeriesNumber": 9, "ShimSetting": [-3665, -7517, 3786, 1084, 15, 515, 182, 25], "SliceThickness": 3, "SliceTiming": [0.2625, 0, 0.3275, 0.065, 0.3925, 0.1325, 0.46, 0.1975, 0.525, 0.2625, 0, 0.3275, 0.065, 0.3925, 0.1325, 0.46, 0.1975, 0.525, 0.2625, 0, 0.3275, 0.065, 0.3925, 0.1325, 0.46, 0.1975, 0.525, 0.2625, 0, 0.3275, 0.065, 0.3925, 0.1325, 0.46, 0.1975, 0.525], "SoftwareVersions": "syngo MR E11", "SpacingBetweenSlices": 3.3, "StationName": "AWP166182", "TaskName": "pictures", "TotalReadoutTime": 0.0340202, "TxRefAmp": 250.036, "dcmmeta_affine": [[-2.9803194999694824, -0.25917184352874756, -0.24725644290447235, 110.27225494384766], [-0.2489955872297287, 2.9862842559814453, -0.1559837907552719, -85.9845962524414], [-0.2360013872385025, 0.12221690267324448, 3.287024974822998, -100.17113494873047], [0.0, 0.0, 0.0, 1.0]], "dcmmeta_reorient_transform": [[0.0, -1.0, 0.0, 63.0], [1.0, 0.0, 0.0, 0.0], [0.0, 0.0, 1.0, 0.0], [0.0, 0.0, 0.0, 1.0]], "dcmmeta_shape": [64, 64, 36, 510], "dcmmeta_slice_dim": 2, "dcmmeta_version": 0.6, "global": {"const": {"AcquisitionMatrix": [64, 0, 0, 64], "AngioFlag": "N", "BitsAllocated": 16, "BitsStored": 12, "BodyPartExamined": "BRAIN", "Columns": 384, "EchoNumbers": 1, "EchoTime": 32.0, "EchoTrainLength": 64, "FlipAngle": 40.0, "HighBit": 11, "ImageOrientationPatient": [0.99343984552126, 0.08299852916995, -0.0786671309145, -0.0863906174007, 0.99542804745872, -0.0407389685394], "ImagePositionPatient": [-529.32805549741, -619.79605918849, -35.156542586124], "ImageType": ["ORIGINAL", "PRIMARY", "M", "ND", "NORM", "MOSAIC"], "ImagedNucleus": "1H", "ImagingFrequency": 123.257445, "InPlanePhaseEncodingDirection": "COL", "MRAcquisitionType": "2D", "MagneticFieldStrength": 3.0, "Manufacturer": "SIEMENS", "ManufacturerModelName": "Prisma", "Modality": "MR", "NumberOfAverages": 1.0, "NumberOfPhaseEncodingSteps": 64, "PercentPhaseFieldOfView": 100.0, "PercentSampling": 100.0, "PerformedProcedureStepStartTime": "145223.555000", "PhotometricInterpretation": "MONOCHROME2", "PixelBandwidth": 2300.0, "PixelRepresentation": 0, "PixelSpacing": [3.0, 3.0], "ProtocolName": "cmrr_mbep2d_bold_Pictures_AP", "RepetitionTime": 610.0, "Rows": 384, "SAR": 0.2859887424351, "SamplesPerPixel": 1, "ScanOptions": "FS", "ScanningSequence": "EP", "SequenceName": "*epfid2d1_64", "SequenceVariant": "SK", "SeriesDescription": "cmrr_mbep2d_bold_Pictures_AP", "SeriesNumber": 9, "SeriesTime": "151812.277000", "SliceLocation": -103.97525645862, "SliceThickness": 3.0, "SmallestImagePixelValue": 0, "SoftwareVersions": "syngo MR E11", "SpacingBetweenSlices": 3.2999999938213, "SpecificCharacterSet": "ISO_IR 100", "StudyID": "1", "StudyTime": "145223.450000", "TransmitCoilName": "Body", "VariableFlipAngleFlag": "N", "WindowCenterWidthExplanation": "Algo1"}, "slices": {}}, "time": {"samples": {"AcquisitionNumber": [1, 2, 3, 4, 5, 6, 7, 8, 9, 10, 11, 12, 13, 14, 15, 16, 17, 18, 19, 20, 21, 22, 23, 24, 25, 26, 27, 28, 29, 30, 31, 32, 33, 34, 35, 36, 37, 38, 39, 40, 41, 42, 43, 44, 45, 46, 47, 48, 49, 50, 51, 52, 53, 54, 55, 56, 57, 58, 59, 60, 61, 62, 63, 64, 65, 66, 67, 68, 69, 70, 71, 72, 73, 74, 75, 76, 77, 78, 79, 80, 81, 82, 83, 84, 85, 86, 87, 88, 89, 90, 91, 92, 93, 94, 95, 96, 97, 98, 99, 100, 101, 102, 103, 104, 105, 106, 107, 108, 109, 110, 111, 112, 113, 114, 115, 116, 117, 118, 119, 120, 121, 122, 123, 124, 125, 126, 127, 128, 129, 130, 131, 132, 133, 134, 135, 136, 137, 138, 139, 140, 141, 142, 143, 144, 145, 146, 147, 148, 149, 150, 151, 152, 153, 154, 155, 156, 157, 158, 159, 160, 161, 162, 163, 164, 165, 166, 167, 168, 169, 170, 171, 172, 173, 174, 175, 176, 177, 178, 179, 180, 181, 182, 183, 184, 185, 186, 187, 188, 189, 190, 191, 192, 193, 194, 195, 196, 197, 198, 199, 200, 201, 202, 203, 204, 205, 206, 207, 208, 209, 210, 211, 212, 213, 214, 215, 216, 217, 218, 219, 220, 221, 222, 223, 224, 225, 226, 227, 228, 229, 230, 231, 232, 233, 234, 235, 236, 237, 238, 239, 240, 241, 242, 243, 244, 245, 246, 247, 248, 249, 250, 251, 252, 253, 254, 255, 256, 257, 258, 259, 260, 261, 262, 263, 264, 265, 266, 267, 268, 269, 270, 271, 272, 273, 274, 275, 276, 277, 278, 279, 280, 281, 282, 283, 284, 285, 286, 287, 288, 289, 290, 291, 292, 293, 294, 295, 296, 297, 298, 299, 300, 301, 302, 303, 304, 305, 306, 307, 308, 309, 310, 311, 312, 313, 314, 315, 316, 317, 318, 319, 320, 321, 322, 323, 324, 325, 326, 327, 328, 329, 330, 331, 332, 333, 334, 335, 336, 337, 338, 339, 340, 341, 342, 343, 344, 345, 346, 347, 348, 349, 350, 351, 352, 353, 354, 355, 356, 357, 358, 359, 360, 361, 362, 363, 364, 365, 366, 367, 368, 369, 370, 371, 372, 373, 374, 375, 376, 377, 378, 379, 380, 381, 382, 383, 384, 385, 386, 387, 388, 389, 390, 391, 392, 393, 394, 395, 396, 397, 398, 399, 400, 401, 402, 403, 404, 405, 406, 407, 408, 409, 410, 411, 412, 413, 414, 415, 416, 417, 418, 419, 420, 421, 422, 423, 424, 425, 426, 427, 428, 429, 430, 431, 432, 433, 434, 435, 436, 437, 438, 439, 440, 441, 442, 443, 444, 445, 446, 447, 448, 449, 450, 451, 452, 453, 454, 455, 456, 457, 458, 459, 460, 461, 462, 463, 464, 465, 466, 467, 468, 469, 470, 471, 472, 473, 474, 475, 476, 477, 478, 479, 480, 481, 482, 483, 484, 485, 486, 487, 488, 489, 490, 491, 492, 493, 494, 495, 496, 497, 498, 499, 500, 501, 502, 503, 504, 505, 506, 507, 508, 509, 510], "AcquisitionTime": ["151747.710000", "151748.320000", "151748.930000", "151749.540000", "151750.150000", "151750.760000", "151751.370000", "151751.980000", "151752.590000", "151753.200000", "151753.810000", "151754.420000", "151755.030000", "151755.640000", "151756.250000", "151756.860000", "151757.470000", "151758.080000", "151758.690000", "151759.300000", "151759.910000", "151800.520000", "151801.130000", "151801.740000", "151802.350000", "151802.960000", "151803.570000", "151804.180000", "151804.790000", "151805.400000", "151806.010000", "151806.620000", "151807.230000", "151807.840000", "151808.450000", "151809.060000", "151809.670000", "151810.280000", "151810.890000", "151811.500000", "151812.110000", "151812.720000", "151813.330000", "151813.940000", "151814.550000", "151815.160000", "151815.770000", "151816.380000", "151816.990000", "151817.600000", "151818.210000", "151818.820000", "151819.430000", "151820.040000", "151820.650000", "151821.260000", "151821.870000", "151822.480000", "151823.090000", "151823.700000", "151824.310000", "151824.920000", "151825.530000", "151826.140000", "151826.750000", "151827.360000", "151827.970000", "151828.580000", "151829.190000", "151829.800000", "151830.410000", "151831.020000", "151831.630000", "151832.240000", "151832.850000", "151833.460000", "151834.070000", "151834.680000", "151835.290000", "151835.900000", "151836.510000", "151837.120000", "151837.730000", "151838.340000", "151838.950000", "151839.560000", "151840.170000", "151840.780000", "151841.390000", "151842.000000", "151842.610000", "151843.220000", "151843.830000", "151844.440000", "151845.050000", "151845.660000", "151846.270000", "151846.880000", "151847.490000", "151848.100000", "151848.710000", "151849.320000", "151849.930000", "151850.540000", "151851.150000", "151851.760000", "151852.370000", "151852.980000", "151853.590000", "151854.200000", "151854.810000", "151855.420000", "151856.030000", "151856.640000", "151857.250000", "151857.860000", "151858.470000", "151859.080000", "151859.690000", "151900.300000", "151900.910000", "151901.520000", "151902.130000", "151902.740000", "151903.350000", "151903.960000", "151904.570000", "151905.180000", "151905.790000", "151906.400000", "151907.010000", "151907.620000", "151908.230000", "151908.840000", "151909.450000", "151910.060000", "151910.670000", "151911.280000", "151911.890000", "151912.500000", "151913.110000", "151913.720000", "151914.330000", "151914.940000", "151915.550000", "151916.160000", "151916.770000", "151917.380000", "151917.990000", "151918.600000", "151919.210000", "151919.820000", "151920.430000", "151921.040000", "151921.650000", "151922.260000", "151922.870000", "151923.480000", "151924.090000", "151924.700000", "151925.310000", "151925.920000", "151926.530000", "151927.140000", "151927.750000", "151928.360000", "151928.970000", "151929.580000", "151930.190000", "151930.800000", "151931.410000", "151932.020000", "151932.630000", "151933.240000", "151933.850000", "151934.460000", "151935.070000", "151935.680000", "151936.290000", "151936.900000", "151937.510000", "151938.120000", "151938.730000", "151939.340000", "151939.950000", "151940.560000", "151941.170000", "151941.780000", "151942.390000", "151943.000000", "151943.610000", "151944.220000", "151944.830000", "151945.440000", "151946.050000", "151946.660000", "151947.270000", "151947.880000", "151948.490000", "151949.100000", "151949.710000", "151950.320000", "151950.930000", "151951.540000", "151952.150000", "151952.760000", "151953.370000", "151953.980000", "151954.590000", "151955.200000", "151955.810000", "151956.420000", "151957.030000", "151957.640000", "151958.250000", "151958.860000", "151959.470000", "152000.080000", "152000.690000", "152001.300000", "152001.910000", "152002.520000", "152003.130000", "152003.740000", "152004.350000", "152004.960000", "152005.570000", "152006.180000", "152006.790000", "152007.400000", "152008.010000", "152008.620000", "152009.230000", "152009.840000", "152010.450000", "152011.060000", "152011.670000", "152012.280000", "152012.890000", "152013.500000", "152014.110000", "152014.720000", "152015.330000", "152015.940000", "152016.550000", "152017.160000", "152017.770000", "152018.380000", "152018.990000", "152019.600000", "152020.210000", "152020.820000", "152021.430000", "152022.040000", "152022.650000", "152023.260000", "152023.870000", "152024.480000", "152025.090000", "152025.700000", "152026.310000", "152026.920000", "152027.530000", "152028.140000", "152028.750000", "152029.360000", "152029.970000", "152030.580000", "152031.190000", "152031.800000", "152032.410000", "152033.020000", "152033.630000", "152034.240000", "152034.850000", "152035.460000", "152036.070000", "152036.680000", "152037.290000", "152037.900000", "152038.510000", "152039.120000", "152039.730000", "152040.340000", "152040.950000", "152041.560000", "152042.170000", "152042.780000", "152043.390000", "152044.000000", "152044.610000", "152045.220000", "152045.830000", "152046.440000", "152047.050000", "152047.660000", "152048.270000", "152048.880000", "152049.490000", "152050.100000", "152050.710000", "152051.320000", "152051.930000", "152052.540000", "152053.150000", "152053.760000", "152054.370000", "152054.980000", "152055.590000", "152056.200000", "152056.810000", "152057.420000", "152058.030000", "152058.640000", "152059.250000", "152059.860000", "152100.470000", "152101.080000", "152101.690000", "152102.300000", "152102.910000", "152103.520000", "152104.130000", "152104.740000", "152105.350000", "152105.960000", "152106.570000", "152107.180000", "152107.790000", "152108.400000", "152109.010000", "152109.620000", "152110.230000", "152110.840000", "152111.450000", "152112.060000", "152112.670000", "152113.280000", "152113.890000", "152114.500000", "152115.110000", "152115.720000", "152116.330000", "152116.940000", "152117.550000", "152118.160000", "152118.770000", "152119.380000", "152119.990000", "152120.600000", "152121.210000", "152121.820000", "152122.430000", "152123.040000", "152123.650000", "152124.260000", "152124.870000", "152125.480000", "152126.090000", "152126.700000", "152127.310000", "152127.920000", "152128.530000", "152129.140000", "152129.750000", "152130.360000", "152130.970000", "152131.580000", "152132.190000", "152132.800000", "152133.410000", "152134.020000", "152134.630000", "152135.240000", "152135.850000", "152136.460000", "152137.070000", "152137.680000", "152138.290000", "152138.900000", "152139.510000", "152140.120000", "152140.730000", "152141.340000", "152141.950000", "152142.560000", "152143.170000", "152143.780000", "152144.390000", "152145.000000", "152145.610000", "152146.220000", "152146.830000", "152147.440000", "152148.050000", "152148.660000", "152149.270000", "152149.880000", "152150.490000", "152151.100000", "152151.710000", "152152.320000", "152152.930000", "152153.540000", "152154.150000", "152154.760000", "152155.370000", "152155.980000", "152156.590000", "152157.200000", "152157.810000", "152158.420000", "152159.030000", "152159.640000", "152200.250000", "152200.860000", "152201.470000", "152202.080000", "152202.690000", "152203.300000", "152203.910000", "152204.520000", "152205.130000", "152205.740000", "152206.350000", "152206.960000", "152207.570000", "152208.180000", "152208.790000", "152209.400000", "152210.010000", "152210.620000", "152211.230000", "152211.840000", "152212.450000", "152213.060000", "152213.670000", "152214.280000", "152214.890000", "152215.500000", "152216.110000", "152216.720000", "152217.330000", "152217.940000", "152218.550000", "152219.160000", "152219.770000", "152220.380000", "152220.990000", "152221.600000", "152222.210000", "152222.820000", "152223.430000", "152224.040000", "152224.650000", "152225.260000", "152225.870000", "152226.480000", "152227.090000", "152227.700000", "152228.310000", "152228.920000", "152229.530000", "152230.140000", "152230.750000", "152231.360000", "152231.970000", "152232.580000", "152233.190000", "152233.800000", "152234.410000", "152235.020000", "152235.630000", "152236.240000", "152236.850000", "152237.460000", "152238.070000", "152238.680000", "152239.290000", "152239.900000", "152240.510000", "152241.120000", "152241.730000", "152242.340000", "152242.950000", "152243.560000", "152244.170000", "152244.780000", "152245.390000", "152246.000000", "152246.610000", "152247.220000", "152247.830000", "152248.440000", "152249.050000", "152249.660000", "152250.270000", "152250.880000", "152251.490000", "152252.100000", "152252.710000", "152253.320000", "152253.930000", "152254.540000", "152255.150000", "152255.760000", "152256.370000", "152256.980000", "152257.590000", "152258.200000"], "ContentTime": ["151812.281000", "151812.285000", "151812.288000", "151812.290000", "151812.293000", "151812.295000", "151812.298000", "151812.300000", "151812.302000", "151812.305000", "151812.307000", "151812.310000", "151812.312000", "151812.314000", "151812.317000", "151812.319000", "151812.322000", "151812.324000", "151812.333000", "151812.335000", "151812.337000", "151812.340000", "151812.342000", "151812.345000", "151812.347000", "151812.349000", "151812.352000", "151812.354000", "151812.356000", "151812.359000", "151812.361000", "151812.364000", "151812.366000", "151812.368000", "151812.371000", "151812.373000", "151812.376000", "151812.378000", "151812.381000", "151812.383000", "151832.276000", "151832.279000", "151832.281000", "151832.284000", "151832.291000", "151832.293000", "151832.296000", "151832.298000", "151832.301000", "151832.303000", "151832.306000", "151832.308000", "151832.311000", "151832.313000", "151832.315000", "151832.318000", "151832.321000", "151832.323000", "151832.325000", "151832.328000", "151832.330000", "151832.333000", "151832.335000", "151832.337000", "151832.340000", "151832.342000", "151832.345000", "151832.347000", "151832.349000", "151832.352000", "151832.354000", "151832.357000", "151832.359000", "151852.277000", "151852.279000", "151852.282000", "151852.284000", "151852.286000", "151852.289000", "151852.291000", "151852.294000", "151852.296000", "151852.298000", "151852.301000", "151852.303000", "151852.306000", "151852.308000", "151852.310000", "151852.313000", "151852.315000", "151852.318000", "151852.320000", "151852.323000", "151852.326000", "151852.329000", "151852.331000", "151852.334000", "151852.336000", "151852.342000", "151852.345000", "151852.347000", "151852.350000", "151852.352000", "151852.354000", "151852.357000", "151912.276000", "151912.279000", "151912.281000", "151912.284000", "151912.286000", "151912.288000", "151912.291000", "151912.293000", "151912.296000", "151912.298000", "151912.301000", "151912.303000", "151912.305000", "151912.308000", "151912.310000", "151912.313000", "151912.315000", "151912.317000", "151912.320000", "151912.322000", "151912.325000", "151912.327000", "151912.330000", "151912.332000", "151912.335000", "151912.337000", "151912.339000", "151912.342000", "151912.345000", "151912.347000", "151912.350000", "151912.352000", "151912.355000", "151932.276000", "151932.279000", "151932.281000", "151932.284000", "151932.286000", "151932.289000", "151932.291000", "151932.294000", "151932.296000", "151932.299000", "151932.301000", "151932.303000", "151932.306000", "151932.308000", "151932.311000", "151932.313000", "151932.316000", "151932.318000", "151932.321000", "151932.323000", "151932.325000", "151932.330000", "151932.332000", "151932.335000", "151932.337000", "151932.340000", "151932.342000", "151932.345000", "151932.347000", "151932.350000", "151932.352000", "151932.355000", "151932.357000", "151952.275000", "151952.278000", "151952.280000", "151952.283000", "151952.285000", "151952.288000", "151952.290000", "151952.293000", "151952.295000", "151952.297000", "151952.300000", "151952.302000", "151952.305000", "151952.307000", "151952.310000", "151952.312000", "151952.315000", "151952.317000", "151952.320000", "151952.322000", "151952.324000", "151952.327000", "151952.329000", "151952.332000", "151952.334000", "151952.336000", "151952.339000", "151952.341000", "151952.344000", "151952.346000", "151952.349000", "151952.351000", "151952.353000", "152012.276000", "152012.279000", "152012.282000", "152012.284000", "152012.287000", "152012.289000", "152012.291000", "152012.294000", "152012.296000", "152012.299000", "152012.301000", "152012.304000", "152012.306000", "152012.308000", "152012.311000", "152012.313000", "152012.316000", "152012.318000", "152012.321000", "152012.323000", "152012.326000", "152012.328000", "152012.330000", "152012.333000", "152012.335000", "152012.338000", "152012.340000", "152012.342000", "152012.345000", "152012.347000", "152012.349000", "152012.352000", "152012.354000", "152032.276000", "152032.279000", "152032.281000", "152032.284000", "152032.286000", "152032.289000", "152032.291000", "152032.293000", "152032.296000", "152032.298000", "152032.301000", "152032.303000", "152032.306000", "152032.308000", "152032.310000", "152032.313000", "152032.315000", "152032.317000", "152032.320000", "152032.322000", "152032.325000", "152032.327000", "152032.330000", "152032.332000", "152032.334000", "152032.337000", "152032.339000", "152032.342000", "152032.350000", "152032.353000", "152032.355000", "152032.357000", "152052.276000", "152052.279000", "152052.281000", "152052.284000", "152052.287000", "152052.289000", "152052.291000", "152052.294000", "152052.296000", "152052.299000", "152052.302000", "152052.304000", "152052.307000", "152052.310000", "152052.313000", "152052.315000", "152052.318000", "152052.321000", "152052.323000", "152052.326000", "152052.329000", "152052.331000", "152052.334000", "152052.336000", "152052.339000", "152052.341000", "152052.344000", "152052.346000", "152052.349000", "152052.351000", "152052.354000", "152052.356000", "152052.359000", "152112.276000", "152112.279000", "152112.282000", "152112.284000", "152112.287000", "152112.289000", "152112.292000", "152112.294000", "152112.296000", "152112.299000", "152112.302000", "152112.304000", "152112.307000", "152112.309000", "152112.311000", "152112.314000", "152112.316000", "152112.319000", "152112.321000", "152112.324000", "152112.326000", "152112.329000", "152112.331000", "152112.334000", "152112.336000", "152112.338000", "152112.341000", "152112.343000", "152112.345000", "152112.348000", "152112.350000", "152112.353000", "152112.355000", "152132.276000", "152132.279000", "152132.281000", "152132.284000", "152132.286000", "152132.289000", "152132.291000", "152132.294000", "152132.296000", "152132.298000", "152132.301000", "152132.303000", "152132.306000", "152132.308000", "152132.311000", "152132.313000", "152132.315000", "152132.318000", "152132.320000", "152132.323000", "152132.325000", "152132.328000", "152132.330000", "152132.332000", "152132.335000", "152132.337000", "152132.340000", "152132.342000", "152132.345000", "152132.347000", "152132.349000", "152132.352000", "152132.354000", "152152.276000", "152152.279000", "152152.281000", "152152.284000", "152152.286000", "152152.288000", "152152.291000", "152152.294000", "152152.296000", "152152.298000", "152152.301000", "152152.303000", "152152.306000", "152152.308000", "152152.310000", "152152.313000", "152152.315000", "152152.318000", "152152.320000", "152152.323000", "152152.325000", "152152.327000", "152152.330000", "152152.332000", "152152.335000", "152152.337000", "152152.339000", "152152.342000", "152152.345000", "152152.347000", "152152.350000", "152152.353000", "152152.355000", "152212.275000", "152212.278000", "152212.281000", "152212.283000", "152212.286000", "152212.288000", "152212.291000", "152212.293000", "152212.295000", "152212.298000", "152212.300000", "152212.303000", "152212.305000", "152212.307000", "152212.310000", "152212.312000", "152212.315000", "152212.317000", "152212.319000", "152212.322000", "152212.324000", "152212.327000", "152212.329000", "152212.332000", "152212.334000", "152212.336000", "152212.339000", "152212.341000", "152212.344000", "152212.346000", "152212.349000", "152212.351000", "152232.276000", "152232.279000", "152232.281000", "152232.284000", "152232.286000", "152232.289000", "152232.291000", "152232.294000", "152232.296000", "152232.299000", "152232.301000", "152232.303000", "152232.306000", "152232.308000", "152232.310000", "152232.313000", "152232.315000", "152232.318000", "152232.320000", "152232.322000", "152232.325000", "152232.327000", "152232.330000", "152232.332000", "152232.335000", "152232.337000", "152232.339000", "152232.342000", "152232.344000", "152232.347000", "152232.349000", "152232.353000", "152232.355000", "152252.276000", "152252.279000", "152252.282000", "152252.284000", "152252.286000", "152252.289000", "152252.291000", "152252.294000", "152252.296000", "152252.299000", "152252.301000", "152252.304000", "152252.306000", "152252.309000", "152252.311000", "152252.314000", "152252.316000", "152252.319000", "152252.321000", "152252.323000", "152252.326000", "152252.328000", "152252.331000", "152252.333000", "152252.335000", "152252.338000", "152252.341000", "152252.343000", "152252.345000", "152252.348000", "152252.350000", "152252.353000", "152252.355000", "152258.716000", "152258.719000", "152258.722000", "152258.724000", "152258.727000", "152258.729000", "152258.732000", "152258.734000", "152258.737000", "152258.739000", "152258.742000"], "InstanceCreationTime": ["151812.281000", "151812.285000", "151812.288000", "151812.290000", "151812.293000", "151812.295000", "151812.298000", "151812.300000", "151812.302000", "151812.305000", "151812.307000", "151812.310000", "151812.312000", "151812.314000", "151812.317000", "151812.319000", "151812.322000", "151812.324000", "151812.333000", "151812.335000", "151812.337000", "151812.340000", "151812.342000", "151812.345000", "151812.347000", "151812.349000", "151812.352000", "151812.354000", "151812.356000", "151812.359000", "151812.361000", "151812.364000", "151812.366000", "151812.368000", "151812.371000", "151812.373000", "151812.376000", "151812.378000", "151812.381000", "151812.383000", "151832.276000", "151832.279000", "151832.281000", "151832.284000", "151832.291000", "151832.293000", "151832.296000", "151832.298000", "151832.301000", "151832.303000", "151832.306000", "151832.308000", "151832.311000", "151832.313000", "151832.315000", "151832.318000", "151832.321000", "151832.323000", "151832.325000", "151832.328000", "151832.330000", "151832.333000", "151832.335000", "151832.337000", "151832.340000", "151832.342000", "151832.345000", "151832.347000", "151832.349000", "151832.352000", "151832.354000", "151832.357000", "151832.359000", "151852.277000", "151852.279000", "151852.282000", "151852.284000", "151852.286000", "151852.289000", "151852.291000", "151852.294000", "151852.296000", "151852.298000", "151852.301000", "151852.303000", "151852.306000", "151852.308000", "151852.310000", "151852.313000", "151852.315000", "151852.318000", "151852.320000", "151852.323000", "151852.326000", "151852.329000", "151852.331000", "151852.334000", "151852.336000", "151852.342000", "151852.345000", "151852.347000", "151852.350000", "151852.352000", "151852.354000", "151852.357000", "151912.276000", "151912.279000", "151912.281000", "151912.284000", "151912.286000", "151912.288000", "151912.291000", "151912.293000", "151912.296000", "151912.298000", "151912.301000", "151912.303000", "151912.305000", "151912.308000", "151912.310000", "151912.313000", "151912.315000", "151912.317000", "151912.320000", "151912.322000", "151912.325000", "151912.327000", "151912.330000", "151912.332000", "151912.335000", "151912.337000", "151912.339000", "151912.342000", "151912.345000", "151912.347000", "151912.350000", "151912.352000", "151912.355000", "151932.276000", "151932.279000", "151932.281000", "151932.284000", "151932.286000", "151932.289000", "151932.291000", "151932.294000", "151932.296000", "151932.299000", "151932.301000", "151932.303000", "151932.306000", "151932.308000", "151932.311000", "151932.313000", "151932.316000", "151932.318000", "151932.321000", "151932.323000", "151932.325000", "151932.330000", "151932.332000", "151932.335000", "151932.337000", "151932.340000", "151932.342000", "151932.345000", "151932.347000", "151932.350000", "151932.352000", "151932.355000", "151932.357000", "151952.275000", "151952.278000", "151952.280000", "151952.283000", "151952.285000", "151952.288000", "151952.290000", "151952.293000", "151952.295000", "151952.297000", "151952.300000", "151952.302000", "151952.305000", "151952.307000", "151952.310000", "151952.312000", "151952.315000", "151952.317000", "151952.320000", "151952.322000", "151952.324000", "151952.327000", "151952.329000", "151952.332000", "151952.334000", "151952.336000", "151952.339000", "151952.341000", "151952.344000", "151952.346000", "151952.349000", "151952.351000", "151952.353000", "152012.276000", "152012.279000", "152012.282000", "152012.284000", "152012.287000", "152012.289000", "152012.291000", "152012.294000", "152012.296000", "152012.299000", "152012.301000", "152012.304000", "152012.306000", "152012.308000", "152012.311000", "152012.313000", "152012.316000", "152012.318000", "152012.321000", "152012.323000", "152012.326000", "152012.328000", "152012.330000", "152012.333000", "152012.335000", "152012.338000", "152012.340000", "152012.342000", "152012.345000", "152012.347000", "152012.349000", "152012.352000", "152012.354000", "152032.276000", "152032.279000", "152032.281000", "152032.284000", "152032.286000", "152032.289000", "152032.291000", "152032.293000", "152032.296000", "152032.298000", "152032.301000", "152032.303000", "152032.306000", "152032.308000", "152032.310000", "152032.313000", "152032.315000", "152032.317000", "152032.320000", "152032.322000", "152032.325000", "152032.327000", "152032.330000", "152032.332000", "152032.334000", "152032.337000", "152032.339000", "152032.342000", "152032.350000", "152032.353000", "152032.355000", "152032.357000", "152052.276000", "152052.279000", "152052.281000", "152052.284000", "152052.287000", "152052.289000", "152052.291000", "152052.294000", "152052.296000", "152052.299000", "152052.302000", "152052.304000", "152052.307000", "152052.310000", "152052.313000", "152052.315000", "152052.318000", "152052.321000", "152052.323000", "152052.326000", "152052.329000", "152052.331000", "152052.334000", "152052.336000", "152052.339000", "152052.341000", "152052.344000", "152052.346000", "152052.349000", "152052.351000", "152052.354000", "152052.356000", "152052.359000", "152112.276000", "152112.279000", "152112.282000", "152112.284000", "152112.287000", "152112.289000", "152112.292000", "152112.294000", "152112.296000", "152112.299000", "152112.302000", "152112.304000", "152112.307000", "152112.309000", "152112.311000", "152112.314000", "152112.316000", "