{"AcquisitionMatrixPE": 64, "AcquisitionNumber": 1, "AcquisitionTime": "14:35:24.732500", "BandwidthPerPixelPhaseEncode": 28.935, "BaseResolution": 64, "BodyPartExamined": "BRAIN", "CoilCombinationMethod": "Sum of Squares", "ConsistencyInfo": "N4_VE11E_LATEST_20181129", "ConversionSoftware": "dcm2niix", "ConversionSoftwareVersion": "v1.0.20211006", "DerivedVendorReportedEchoSpacing": 0.000540003, "DeviceSerialNumber": "166182", "DwellTime": 3.4e-06, "EchoTime": 0.032, "EchoTrainLength": 64, "EffectiveEchoSpacing": 0.000540003, "FlipAngle": 40, "ImageOrientationPatientDICOM": [0.998167, 0.0511145, -0.0323992, -0.0510889, 0.998693, 0.00161791], "ImageOrientationText": "Tra>Sag(-1.9)>Cor(-0.0)", "ImageType": ["ORIGINAL", "PRIMARY", "M", "ND", "NORM", "MOSAIC"], "ImagingFrequency": 123.257, "InPlanePhaseEncodingDirectionDICOM": "COL", "InstitutionAddress": "PEARSE STREET .,City,District,IE,D2", "InstitutionName": "TCIN", "InstitutionalDepartmentName": "MRI", "MRAcquisitionType": "2D", "MagneticFieldStrength": 3, "Manufacturer": "Siemens", "ManufacturersModelName": "Prisma", "Modality": "MR", "MultibandAccelerationFactor": 4, "PartialFourier": 1, "PatientPosition": "HFS", "PercentPhaseFOV": 100, "PercentSampling": 100, "PhaseEncodingDirection": "j-", "PhaseEncodingSteps": 64, "PhaseResolution": 1, "PixelBandwidth": 2300, "ProcedureStepDescription": "Rhodri^Head BOLD", "ProtocolName": "cmrr_mbep2d_bold_Pictures_AP", "PulseSequenceDetails": "%SiemensSeq%\\ep2d_bold", "ReceiveCoilActiveElements": "HC2,4,6,7;SC", "ReceiveCoilName": "HeadNeck_64", "ReconMatrixPE": 64, "RefLinesPE": 12, "RepetitionTime": 0.61, "SAR": 0.299879, "ScanOptions": "FS", "ScanningSequence": "EP", "SequenceName": "*epfid2d1_64", "SequenceVariant": "SK", "SeriesDescription": "cmrr_mbep2d_bold_Pictures_AP", "SeriesNumber": 8, "ShimSetting": [-3564, -7466, 3779, 1270, -182, 257, 80, -89], "SliceThickness": 3, "SliceTiming": [0.2625, 0, 0.3275, 0.0675, 0.395, 0.1325, 0.46, 0.1975, 0.525, 0.2625, 0, 0.3275, 0.0675, 0.395, 0.1325, 0.46, 0.1975, 0.525, 0.2625, 0, 0.3275, 0.0675, 0.395, 0.1325, 0.46, 0.1975, 0.525, 0.2625, 0, 0.3275, 0.0675, 0.395, 0.1325, 0.46, 0.1975, 0.525], "SoftwareVersions": "syngo MR E11", "SpacingBetweenSlices": 3.3, "StationName": "AWP166182", "TaskName": "pictures", "TotalReadoutTime": 0.0340202, "TxRefAmp": 246.832, "dcmmeta_affine": [[-2.9945013523101807, -0.15326671302318573, -0.10705045610666275, 100.4621810913086], [-0.15334349870681763, 2.9960784912109375, -0.000132963148644194, -97.62200164794922], [-0.09719755500555038, -0.004853737540543079, 3.2982633113861084, -96.13604736328125], [0.0, 0.0, 0.0, 1.0]], "dcmmeta_reorient_transform": [[0.0, -1.0, 0.0, 63.0], [1.0, 0.0, 0.0, 0.0], [0.0, 0.0, 1.0, 0.0], [0.0, 0.0, 0.0, 1.0]], "dcmmeta_shape": [64, 64, 36, 210], "dcmmeta_slice_dim": 2, "dcmmeta_version": 0.6, "global": {"const": {"AcquisitionMatrix": [64, 0, 0, 64], "AngioFlag": "N", "BitsAllocated": 16, "BitsStored": 12, "BodyPartExamined": "BRAIN", "Columns": 384, "EchoNumbers": 1, "EchoTime": 32.0, "EchoTrainLength": 64, "FlipAngle": 40.0, "HighBit": 11, "ImageOrientationPatient": [0.99816712053564, 0.05111450113231, -0.0323991860327, -0.0510889049457, 0.99869279868765, 0.00161791251063], "ImagePositionPatient": [-545.40392104412, -595.03844145625, -81.666821778453], "ImageType": ["ORIGINAL", "PRIMARY", "M", "ND", "NORM", "MOSAIC"], "ImagedNucleus": "1H", "ImagingFrequency": 123.257041, "InPlanePhaseEncodingDirection": "COL", "MRAcquisitionType": "2D", "MagneticFieldStrength": 3.0, "Manufacturer": "SIEMENS", "ManufacturerModelName": "Prisma", "Modality": "MR", "NumberOfAverages": 1.0, "NumberOfPhaseEncodingSteps": 64, "PercentPhaseFieldOfView": 100.0, "PercentSampling": 100.0, "PerformedProcedureStepStartTime": "141846.668000", "PhotometricInterpretation": "MONOCHROME2", "PixelBandwidth": 2300.0, "PixelRepresentation": 0, "PixelSpacing": [3.0, 3.0], "ProtocolName": "cmrr_mbep2d_bold_Pictures_AP", "RepetitionTime": 610.0, "Rows": 384, "SAR": 0.29987881376007, "SamplesPerPixel": 1, "ScanOptions": "FS", "ScanningSequence": "EP", "SequenceName": "*epfid2d1_64", "SequenceVariant": "SK", "SeriesDescription": "cmrr_mbep2d_bold_Pictures_AP", "SeriesNumber": 8, "SeriesTime": "143542.226000", "SliceLocation": -99.34046391849, "SliceThickness": 3.0, "SmallestImagePixelValue": 0, "SoftwareVersions": "syngo MR E11", "SpacingBetweenSlices": 3.3000000703971, "SpecificCharacterSet": "ISO_IR 100", "StudyID": "1", "StudyTime": "141846.579000", "TransmitCoilName": "Body", "VariableFlipAngleFlag": "N", "WindowCenterWidthExplanation": "Algo1"}, "slices": {}}, "time": {"samples": {"AcquisitionNumber": [1, 2, 3, 4, 5, 6, 7, 8, 9, 10, 11, 12, 13, 14, 15, 16, 17, 18, 19, 20, 21, 22, 23, 24, 25, 26, 27, 28, 29, 30, 31, 32, 33, 34, 35, 36, 37, 38, 39, 40, 41, 42, 43, 44, 45, 46, 47, 48, 49, 50, 51, 52, 53, 54, 55, 56, 57, 58, 59, 60, 61, 62, 63, 64, 65, 66, 67, 68, 69, 70, 71, 72, 73, 74, 75, 76, 77, 78, 79, 80, 81, 82, 83, 84, 85, 86, 87, 88, 89, 90, 91, 92, 93, 94, 95, 96, 97, 98, 99, 100, 101, 102, 103, 104, 105, 106, 107, 108, 109, 110, 111, 112, 113, 114, 115, 116, 117, 118, 119, 120, 121, 122, 123, 124, 125, 126, 127, 128, 129, 130, 131, 132, 133, 134, 135, 136, 137, 138, 139, 140, 141, 142, 143, 144, 145, 146, 147, 148, 149, 150, 151, 152, 153, 154, 155, 156, 157, 158, 159, 160, 161, 162, 163, 164, 165, 166, 167, 168, 169, 170, 171, 172, 173, 174, 175, 176, 177, 178, 179, 180, 181, 182, 183, 184, 185, 186, 187, 188, 189, 190, 191, 192, 193, 194, 195, 196, 197, 198, 199, 200, 201, 202, 203, 204, 205, 206, 207, 208, 209, 210], "AcquisitionTime": ["143524.732500", "143525.342500", "143525.952500", "143526.562500", "143527.172500", "143527.782500", "143528.392500", "143529.002500", "143529.612500", "143530.222500", "143530.832500", "143531.442500", "143532.052500", "143532.662500", "143533.272500", "143533.882500", "143534.492500", "143535.102500", "143535.712500", "143536.322500", "143536.932500", "143537.542500", "143538.152500", "143538.762500", "143539.372500", "143539.982500", "143540.592500", "143541.202500", "143541.812500", "143542.422500", "143543.032500", "143543.642500", "143544.252500", "143544.862500", "143545.472500", "143546.082500", "143546.692500", "143547.302500", "143547.912500", "143548.522500", "143549.132500", "143549.742500", "143550.352500", "143550.962500", "143551.572500", "143552.182500", "143552.792500", "143553.402500", "143554.012500", "143554.622500", "143555.232500", "143555.842500", "143556.452500", "143557.062500", "143557.672500", "143558.282500", "143558.892500", "143559.502500", "143600.112500", "143600.722500", "143601.332500", "143601.942500", "143602.552500", "143603.162500", "143603.772500", "143604.382500", "143604.992500", "143605.602500", "143606.212500", "143606.822500", "143607.432500", "143608.042500", "143608.652500", "143609.262500", "143609.872500", "143610.482500", "143611.092500", "143611.702500", "143612.312500", "143612.922500", "143613.532500", "143614.142500", "143614.752500", "143615.362500", "143615.972500", "143616.582500", "143617.192500", "143617.802500", "143618.412500", "143619.022500", "143619.632500", "143620.242500", "143620.852500", "143621.462500", "143622.072500", "143622.682500", "143623.292500", "143623.902500", "143624.512500", "143625.122500", "143625.732500", "143626.342500", "143626.952500", "143627.562500", "143628.172500", "143628.782500", "143629.392500", "143630.002500", "143630.612500", "143631.222500", "143631.832500", "143632.442500", "143633.052500", "143633.662500", "143634.272500", "143634.882500", "143635.492500", "143636.102500", "143636.712500", "143637.322500", "143637.932500", "143638.542500", "143639.152500", "143639.762500", "143640.372500", "143640.982500", "143641.592500", "143642.202500", "143642.812500", "143643.422500", "143644.032500", "143644.642500", "143645.252500", "143645.862500", "143646.472500", "143647.082500", "143647.692500", "143648.302500", "143648.912500", "143649.522500", "143650.132500", "143650.742500", "143651.352500", "143651.962500", "143652.572500", "143653.182500", "143653.792500", "143654.402500", "143655.012500", "143655.622500", "143656.232500", "143656.842500", "143657.452500", "143658.062500", "143658.672500", "143659.282500", "143659.892500", "143700.502500", "143701.112500", "143701.722500", "143702.332500", "143702.942500", "143703.552500", "143704.162500", "143704.772500", "143705.382500", "143705.992500", "143706.602500", "143707.212500", "143707.822500", "143708.432500", "143709.042500", "143709.652500", "143710.262500", "143710.872500", "143711.482500", "143712.092500", "143712.702500", "143713.312500", "143713.922500", "143714.532500", "143715.142500", "143715.752500", "143716.362500", "143716.972500", "143717.582500", "143718.192500", "143718.802500", "143719.412500", "143720.022500", "143720.632500", "143721.242500", "143721.852500", "143722.462500", "143723.072500", "143723.682500", "143724.292500", "143724.902500", "143725.512500", "143726.122500", "143726.732500", "143727.342500", "143727.952500", "143728.562500", "143729.172500", "143729.782500", "143730.392500", "143731.002500", "143731.612500", "143732.222500"], "ContentTime": ["143542.229000", "143542.232000", "143542.235000", "143542.237000", "143542.239000", "143542.242000", "143542.244000", "143542.246000", "143542.249000", "143542.251000", "143542.254000", "143542.256000", "143542.258000", "143542.268000", "143542.270000", "143542.273000", "143542.275000", "143542.277000", "143542.280000", "143542.282000", "143542.285000", "143542.287000", "143542.289000", "143542.292000", "143542.294000", "143542.296000", "143542.299000", "143542.301000", "143602.224000", "143602.227000", "143602.229000", "143602.239000", "143602.242000", "143602.244000", "143602.247000", "143602.249000", "143602.252000", "143602.255000", "143602.257000", "143602.260000", "143602.262000", "143602.265000", "143602.267000", "143602.269000", "143602.272000", "143602.274000", "143602.277000", "143602.279000", "143602.282000", "143602.284000", "143602.286000", "143602.289000", "143602.291000", "143602.294000", "143602.304000", "143602.306000", "143602.309000", "143602.311000", "143602.314000", "143602.316000", "143602.319000", "143622.224000", "143622.227000", "143622.229000", "143622.231000", "143622.234000", "143622.236000", "143622.239000", "143622.241000", "143622.243000", "143622.246000", "143622.248000", "143622.251000", "143622.253000", "143622.255000", "143622.258000", "143622.260000", "143622.263000", "143622.265000", "143622.267000", "143622.270000", "143622.272000", "143622.275000", "143622.277000", "143622.279000", "143622.282000", "143622.284000", "143622.286000", "143622.289000", "143622.291000", "143622.293000", "143622.296000", "143622.298000", "143622.301000", "143642.224000", "143642.227000", "143642.229000", "143642.232000", "143642.234000", "143642.236000", "143642.239000", "143642.241000", "143642.244000", "143642.246000", "143642.248000", "143642.251000", "143642.253000", "143642.255000", "143642.258000", "143642.260000", "143642.262000", "143642.265000", "143642.267000", "143642.270000", "143642.272000", "143642.274000", "143642.277000", "143642.279000", "143642.282000", "143642.284000", "143642.286000", "143642.289000", "143642.291000", "143642.294000", "143642.296000", "143642.298000", "143642.301000", "143702.225000", "143702.228000", "143702.230000", "143702.233000", "143702.235000", "143702.238000", "143702.240000", "143702.242000", "143702.245000", "143702.247000", "143702.249000", "143702.252000", "143702.254000", "143702.257000", "143702.259000", "143702.262000", "143702.264000", "143702.267000", "143702.269000", "143702.272000", "143702.274000", "143702.276000", "143702.279000", "143702.281000", "143702.284000", "143702.286000", "143702.288000", "143702.291000", "143702.293000", "143702.295000", "143702.298000", "143702.300000", "143722.225000", "143722.228000", "143722.230000", "143722.233000", "143722.235000", "143722.237000", "143722.240000", "143722.242000", "143722.245000", "143722.248000", "143722.250000", "143722.253000", "143722.255000", "143722.258000", "143722.260000", "143722.262000", "143722.265000", "143722.267000", "143722.270000", "143722.272000", "143722.274000", "143722.277000", "143722.279000", "143722.282000", "143722.284000", "143722.286000", "143722.289000", "143722.291000", "143722.293000", "143722.296000", "143722.298000", "143722.301000", "143722.303000", "143733.656000", "143733.659000", "143733.661000", "143733.664000", "143733.666000", "143733.668000", "143733.671000", "143733.673000", "143733.675000", "143733.678000", "143733.680000", "143733.683000", "143733.686000", "143733.688000", "143733.690000", "143733.693000", "143733.697000", "143733.700000"], "InstanceCreationTime": ["143542.229000", "143542.232000", "143542.235000", "143542.237000", "143542.239000", "143542.242000", "143542.244000", "143542.246000", "143542.249000", "143542.251000", "143542.254000", "143542.256000", "143542.258000", "143542.268000", "143542.270000", "143542.273000", "143542.275000", "143542.277000", "143542.280000", "143542.282000", "143542.285000", "143542.287000", "143542.289000", "143542.292000", "143542.294000", "143542.296000", "143542.299000", "143542.301000", "143602.224000", "143602.227000", "143602.229000", "143602.239000", "143602.242000", "143602.244000", "143602.247000", "143602.249000", "143602.252000", "143602.255000", "143602.257000", "143602.260000", "143602.262000", "143602.265000", "143602.267000", "143602.269000", "143602.272000", "143602.274000", "143602.277000", "143602.279000", "143602.282000", "143602.284000", "143602.286000", "143602.289000", "143602.291000", "143602.294000", "143602.304000", "143602.306000", "143602.309000", "143602.311000", "143602.314000", "143602.316000", "143602.319000", "143622.224000", "143622.227000", "143622.229000", "143622.231000", "143622.234000", "143622.236000", "143622.239000", "143622.241000", "143622.243000", "143622.246000", "143622.248000", "143622.251000", "143622.253000", "143622.255000", "143622.258000", "143622.260000", "143622.263000", "143622.265000", "143622.267000", "143622.270000", "143622.272000", "143622.275000", "143622.277000", "143622.279000", "143622.282000", "143622.284000", "143622.286000", "143622.289000", "143622.291000", "143622.293000", "143622.296000", "143622.298000", "143622.301000", "143642.224000", "143642.227000", "143642.229000", "143642.232000", "143642.234000", "143642.236000", "143642.239000", "143642.241000", "143642.244000", "143642.246000", "143642.248000", "143642.251000", "143642.253000", "143642.255000", "143642.258000", "143642.260000", "143642.262000", "143642.265000", "143642.267000", "143642.270000", "143642.272000", "143642.274000", "143642.277000", "143642.279000", "143642.282000", "143642.284000", "143642.286000", "143642.289000", "143642.291000", "143642.294000", "143642.296000", "143642.298000", "143642.301000", "143702.225000", "143702.228000", "143702.230000", "143702.233000", "143702.235000", "143702.238000", "143702.240000", "143702.242000", "143702.245000", "143702.247000", "143702.249000", "143702.252000", "143702.254000", "143702.257000", "143702.259000", "143702.262000", "143702.264000", "143702.267000", "143702.269000", "143702.272000", "143702.274000", "143702.276000", "143702.279000", "143702.281000", "143702.284000", "143702.286000", "143702.288000", "143702.291000", "143702.293000", "143702.295000", "143702.298000", "143702.300000", "143722.225000", "143722.228000", "143722.230000", "143722.233000", "143722.235000", "143722.237000", "143722.240000", "143722.242000", "143722.245000", "143722.248000", "143722.250000", "143722.253000", "143722.255000", "143722.258000", "143722.260000", "143722.262000", "143722.265000", "143722.267000", "143722.270000", "143722.272000", "143722.274000", "143722.277000", "143722.279000", "143722.282000", "143722.284000", "143722.286000", "143722.289000", "143722.291000", "143722.293000", "143722.296000", "143722.298000", "143722.301000", "143722.303000", "143733.656000", "143733.659000", "143733.661000", "143733.664000", "143733.666000", "143733.668000", "143733.671000", "143733.673000", "143733.675000", "143733.678000", "143733.680000", "143733.683000", "143733.686000", "143733.688000", "143733.690000", "143733.693000", "143733.697000", "143733.700000"], "InstanceNumber": [1, 2, 3, 4, 5, 6, 7, 8, 9, 10, 11, 12, 13, 14, 15, 16, 17, 18, 19, 20, 21, 22, 23, 24, 25, 26, 27, 28, 29, 30, 31, 32, 33, 34, 35, 36, 37, 38, 39, 40, 41, 42, 43, 44, 45, 46, 47, 48, 49, 50, 51, 52, 53, 54, 55, 56, 57, 58, 59, 60, 61, 62, 63, 64, 65, 66, 67, 68, 69, 70, 71, 72, 73, 74, 75, 76, 77, 78, 79, 80, 81, 82, 83, 84, 85, 86, 87, 88, 89, 90, 91, 92, 93, 94, 95, 96, 97, 98, 99, 100, 101, 102, 103, 104, 105, 106, 107, 108, 109, 110, 111, 112, 113, 114, 115, 116, 117, 118, 119, 120, 121, 122, 123, 124, 125, 126, 127, 128, 129, 130, 131, 132, 133, 134, 135, 136, 137, 138, 139, 140, 141, 142, 143, 144, 145, 146, 147, 148, 149, 150, 151, 152, 153, 154, 155, 156, 157, 158, 159, 160, 161, 162, 163, 164, 165, 166, 167, 168, 169, 170, 171, 172, 173, 174, 175, 176, 177, 178, 179, 180, 181, 182, 183, 184, 185, 186, 187, 188, 189, 190, 191, 192, 193, 194, 195, 196, 197, 198, 199, 200, 201, 202, 203, 204, 205, 206, 207, 208, 209, 210], "LargestImagePixelValue": [478, 474, 487, 475, 474, 475, 474, 475, 478, 471, 473, 476, 480, 485, 478, 486, 481, 481, 476, 483, 479, 478, 475, 480, 477, 476, 481, 480, 481, 479, 477, 485, 478, 516, 495, 487, 485, 483, 482, 481, 483, 477, 482, 486, 487, 486, 494, 487, 486, 483, 482, 491, 521, 497, 482, 478, 473, 472, 478, 485, 480, 483, 482, 484, 481, 489, 489, 490, 484, 498, 492, 493, 487, 491, 498, 483, 477, 479, 490, 489, 489, 491, 482, 473, 458, 489, 486, 484, 478, 476, 481, 478, 476, 483, 481, 467, 465, 474, 508, 485, 480, 476, 465, 485, 465, 462, 465, 478, 463, 473, 453, 463, 479, 477, 472, 458, 463, 457, 480, 482, 476, 508, 492, 491, 465, 488, 472, 571, 568, 561, 498, 496, 478, 493, 546, 504, 505, 492, 513, 494, 496, 524, 511, 488, 481, 479, 483, 477, 512, 476, 515, 480, 515, 513, 565, 501, 547, 530, 522, 509, 505, 486, 488, 490, 487, 486, 478, 484, 488, 498, 476, 489, 487, 478, 480, 527, 479, 486, 484, 471, 511, 517, 509, 543, 490, 505, 518, 495, 513, 484, 511, 514, 537, 491, 516, 529, 476, 484, 491, 516, 534, 598, 508, 500, 506, 498, 523, 510, 511, 516], "WindowCenter": [304.0, 302.0, 300.0, 300.0, 299.0, 299.0, 299.0, 299.0, 299.0, 299.0, 299.0, 299.0, 300.0, 300.0, 300.0, 300.0, 299.0, 299.0, 299.0, 299.0, 299.0, 299.0, 299.0, 299.0, 299.0, 299.0, 299.0, 301.0, 299.0, 299.0, 299.0, 299.0, 301.0, 299.0, 300.0, 299.0, 299.0, 299.0, 299.0, 300.0, 300.0, 300.0, 299.0, 300.0, 299.0, 300.0, 299.0, 299.0, 299.0, 299.0, 300.0, 302.0, 301.0, 299.0, 300.0, 299.0, 299.0, 298.0, 299.0, 299.0, 298.0, 299.0, 299.0, 299.0, 299.0, 299.0, 299.0, 299.0, 300.0, 300.0, 299.0, 299.0, 300.0, 300.0, 300.0, 300.0, 300.0, 299.0, 299.0, 300.0, 300.0, 300.0, 299.0, 299.0, 300.0, 301.0, 297.0, 301.0, 300.0, 300.0, 300.0, 299.0, 300.0, 298.0, 300.0, 300.0, 299.0, 299.0, 301.0, 299.0, 300.0, 298.0, 294.0, 292.0, 297.0, 300.0, 297.0, 298.0, 299.0, 298.0, 298.0, 298.0, 299.0, 300.0, 299.0, 299.0, 298.0, 299.0, 299.0, 294.0, 293.0, 293.0, 300.0, 304.0, 300.0, 289.0, 290.0, 294.0, 301.0, 301.0, 292.0, 294.0, 289.0, 293.0, 300.0, 290.0, 298.0, 296.0, 302.0, 300.0, 294.0, 299.0, 297.0, 296.0, 295.0, 295.0, 296.0, 294.0, 300.0, 289.0, 297.0, 289.0, 284.0, 283.0, 297.0, 295.0, 294.0, 294.0, 293.0, 294.0, 298.0, 299.0, 297.0, 297.0, 298.0, 295.0, 295.0, 295.0, 297.0, 296.0, 294.0, 296.0, 296.0, 293.0, 295.0, 295.0, 295.0, 296.0, 293.0, 293.0, 288.0, 287.0, 293.0, 298.0, 297.0, 295.0, 300.0, 296.0, 298.0, 293.0, 295.0, 294.0, 298.0, 296.0, 298.0, 300.0, 292.0, 290.0, 285.0, 283.0, 291.0, 297.0, 298.0, 296.0, 295.0, 296.0, 298.0, 296.0, 297.0, 300.0], "WindowWidth": [658.0, 653.0, 651.0, 650.0, 648.0, 648.0, 648.0, 647.0, 649.0, 647.0, 647.0, 649.0, 650.0, 650.0, 649.0, 650.0, 648.0, 647.0, 648.0, 647.0, 647.0, 647.0, 648.0, 647.0, 648.0, 647.0, 648.0, 652.0, 648.0, 647.0, 649.0, 648.0, 652.0, 648.0, 649.0, 647.0, 647.0, 647.0, 648.0, 649.0, 650.0, 650.0, 649.0, 650.0, 648.0, 651.0, 649.0, 648.0, 649.0, 649.0, 649.0, 655.0, 651.0, 649.0, 650.0, 647.0, 647.0, 646.0, 649.0, 648.0, 647.0, 648.0, 649.0, 649.0, 648.0, 649.0, 649.0, 648.0, 649.0, 651.0, 649.0, 649.0, 650.0, 649.0, 650.0, 651.0, 650.0, 648.0, 648.0, 650.0, 649.0, 650.0, 649.0, 648.0, 650.0, 653.0, 644.0, 651.0, 650.0, 650.0, 649.0, 648.0, 649.0, 647.0, 651.0, 650.0, 648.0, 649.0, 651.0, 648.0, 650.0, 645.0, 639.0, 634.0, 645.0, 650.0, 645.0, 647.0, 648.0, 646.0, 646.0, 645.0, 648.0, 649.0, 648.0, 649.0, 647.0, 648.0, 649.0, 639.0, 637.0, 637.0, 650.0, 658.0, 651.0, 630.0, 632.0, 639.0, 652.0, 652.0, 637.0, 639.0, 630.0, 639.0, 651.0, 633.0, 646.0, 644.0, 655.0, 650.0, 639.0, 649.0, 645.0, 642.0, 641.0, 641.0, 643.0, 638.0, 651.0, 630.0, 644.0, 630.0, 619.0, 620.0, 647.0, 643.0, 640.0, 640.0, 638.0, 640.0, 647.0, 648.0, 644.0, 644.0, 647.0, 642.0, 641.0, 641.0, 644.0, 643.0, 639.0, 642.0, 643.0, 637.0, 641.0, 641.0, 642.0, 643.0, 637.0, 637.0, 627.0, 627.0, 640.0, 647.0, 646.0, 642.0, 652.0, 643.0, 647.0, 638.0, 642.0, 639.0, 648.0, 644.0, 647.0, 650.0, 636.0, 631.0, 621.0, 620.0, 635.0, 645.0, 648.0, 644.0, 641.0, 644.0, 646.0, 644.0, 645.0, 651.0]}, "slices": {}}, "EventTimestamp": "14-37-30"}