{"AcquisitionMatrixPE": 64, "AcquisitionNumber": 1, "AcquisitionTime": "10:43:4.997500", "BandwidthPerPixelPhaseEncode": 28.935, "BaseResolution": 64, "BodyPartExamined": "BRAIN", "CoilCombinationMethod": "Sum of Squares", "ConsistencyInfo": "N4_VE11E_LATEST_20181129", "ConversionSoftware": "dcm2niix", "ConversionSoftwareVersion": "v1.0.20230411", "DerivedVendorReportedEchoSpacing": 0.000540003, "DeviceSerialNumber": "166182", "DwellTime": 3.4e-06, "EchoTime": 0.032, "EchoTrainLength": 64, "EffectiveEchoSpacing": 0.000540003, "FlipAngle": 40, "HeudiconvVersion": "0.13.1", "ImageOrientationPatientDICOM": [0.993055, -0.111115, -0.0386582, 0.111213, 0.993796, 0.000407248], "ImageOrientationText": "Tra>Sag(-2.2)>Cor(0.3)", "ImageType": ["ORIGINAL", "PRIMARY", "M", "ND", "NORM", "MOSAIC"], "ImagingFrequency": 123.25608, "InPlanePhaseEncodingDirectionDICOM": "COL", "InstitutionAddress": "PEARSE STREET .,City,District,IE,D2", "InstitutionName": "TCIN", "InstitutionalDepartmentName": "MRI", "MRAcquisitionType": "2D", "MagneticFieldStrength": 3, "Manufacturer": "Siemens", "ManufacturersModelName": "Prisma", "Modality": "MR", "MultibandAccelerationFactor": 4, "NonlinearGradientCorrection": false, "PartialFourier": 1, "PatientPosition": "HFS", "PercentPhaseFOV": 100, "PercentSampling": 100, "PhaseEncodingDirection": "j-", "PhaseEncodingSteps": 64, "PhaseResolution": 1, "PixelBandwidth": 2300, "ProcedureStepDescription": "Rhodri^Head BOLD", "ProtocolName": "cmrr_mbep2d_Pictures_AP_RDS", "PulseSequenceDetails": "%SiemensSeq%\\ep2d_bold", "ReceiveCoilActiveElements": "HC2,4,6,7;SC", "ReceiveCoilName": "SpecialPurpose_4", "ReconMatrixPE": 64, "RefLinesPE": 12, "RepetitionTime": 0.61, "SAR": 0.273845, "ScanOptions": "FS", "ScanningSequence": "EP", "SequenceName": "*epfid2d1_64", "SequenceVariant": "SK", "SeriesDescription": "cmrr_mbep2d_Pictures_AP_RDS", "SeriesNumber": 5, "ShimSetting": [-3629, -7616, 3863, 945, -178, 357, 392, 136], "SliceThickness": 3, "SliceTiming": [0.2625, 0, 0.3275, 0.065, 0.3925, 0.13, 0.46, 0.1975, 0.525, 0.2625, 0, 0.3275, 0.065, 0.3925, 0.13, 0.46, 0.1975, 0.525, 0.2625, 0, 0.3275, 0.065, 0.3925, 0.13, 0.46, 0.1975, 0.525, 0.2625, 0, 0.3275, 0.065, 0.3925, 0.13, 0.46, 0.1975, 0.525], "SoftwareVersions": "syngo MR E11", "SpacingBetweenSlices": 3.3, "StationName": "AWP166182", "TaskName": "pictures", "TotalReadoutTime": 0.0340202, "TxRefAmp": 241.752, "dcmmeta_affine": [[-2.979166269302368, 0.3336404860019684, -0.12663137912750244, 89.90777587890625], [0.3333441913127899, 2.981389284133911, 0.015522325411438942, -112.58267211914062], [-0.11597464978694916, -0.0012217429466545582, 3.2975330352783203, -94.27235412597656], [0.0, 0.0, 0.0, 1.0]], "dcmmeta_reorient_transform": [[0.0, -1.0, 0.0, 63.0], [1.0, 0.0, 0.0, 0.0], [0.0, 0.0, 1.0, 0.0], [0.0, 0.0, 0.0, 1.0]], "dcmmeta_shape": [64, 64, 36, 510], "dcmmeta_slice_dim": 2, "dcmmeta_version": 0.6, "global": {"const": {"AcquisitionMatrix": [64, 0, 0, 64], "AngioFlag": "N", "BitsAllocated": 16, "BitsStored": 12, "BodyPartExamined": "BRAIN", "Columns": 384, "EchoNumbers": 1, "EchoTime": 32.0, "EchoTrainLength": 64, "FlipAngle": 40.0, "HighBit": 11, "ImageOrientationPatient": [0.9930554159774, -0.1111147297599, -0.0386582155349, 0.11121349936471, 0.99379645386187, 0.00040724763287], "ImagePositionPatient": [-640.97620928964, -498.93208790057, -75.988858198882], "ImageType": ["ORIGINAL", "PRIMARY", "M", "ND", "NORM", "MOSAIC"], "ImagedNucleus": "1H", "ImagingFrequency": 123.25608, "InPlanePhaseEncodingDirection": "COL", "MRAcquisitionType": "2D", "MagneticFieldStrength": 3.0, "Manufacturer": "SIEMENS", "ManufacturerModelName": "Prisma", "Modality": "MR", "NumberOfAverages": 1.0, "NumberOfPhaseEncodingSteps": 64, "PercentPhaseFieldOfView": 100.0, "PercentSampling": 100.0, "PerformedProcedureStepStartTime": "103836.504000", "PhotometricInterpretation": "MONOCHROME2", "PixelBandwidth": 2300.0, "PixelRepresentation": 0, "PixelSpacing": [3.0, 3.0], "ProtocolName": "cmrr_mbep2d_Pictures_AP_RDS", "RepetitionTime": 610.0, "Rows": 384, "SAR": 0.27384536489552, "SamplesPerPixel": 1, "ScanOptions": "FS", "ScanningSequence": "EP", "SequenceName": "*epfid2d1_64", "SequenceVariant": "SK", "SeriesDescription": "cmrr_mbep2d_Pictures_AP_RDS", "SeriesNumber": 5, "SeriesTime": "104336.713000", "SliceLocation": -98.181479179769, "SliceThickness": 3.0, "SmallestImagePixelValue": 0, "SoftwareVersions": "syngo MR E11", "SpacingBetweenSlices": 3.300000031849, "SpecificCharacterSet": "ISO_IR 100", "StudyID": "2", "StudyTime": "103836.436000", "TransmitCoilName": "Body", "VariableFlipAngleFlag": "N", "WindowCenterWidthExplanation": "Algo1"}, "slices": {}}, "time": {"samples": {"AcquisitionNumber": [1, 2, 3, 4, 5, 6, 7, 8, 9, 10, 11, 12, 13, 14, 15, 16, 17, 18, 19, 20, 21, 22, 23, 24, 25, 26, 27, 28, 29, 30, 31, 32, 33, 34, 35, 36, 37, 38, 39, 40, 41, 42, 43, 44, 45, 46, 47, 48, 49, 50, 51, 52, 53, 54, 55, 56, 57, 58, 59, 60, 61, 62, 63, 64, 65, 66, 67, 68, 69, 70, 71, 72, 73, 74, 75, 76, 77, 78, 79, 80, 81, 82, 83, 84, 85, 86, 87, 88, 89, 90, 91, 92, 93, 94, 95, 96, 97, 98, 99, 100, 101, 102, 103, 104, 105, 106, 107, 108, 109, 110, 111, 112, 113, 114, 115, 116, 117, 118, 119, 120, 121, 122, 123, 124, 125, 126, 127, 128, 129, 130, 131, 132, 133, 134, 135, 136, 137, 138, 139, 140, 141, 142, 143, 144, 145, 146, 147, 148, 149, 150, 151, 152, 153, 154, 155, 156, 157, 158, 159, 160, 161, 162, 163, 164, 165, 166, 167, 168, 169, 170, 171, 172, 173, 174, 175, 176, 177, 178, 179, 180, 181, 182, 183, 184, 185, 186, 187, 188, 189, 190, 191, 192, 193, 194, 195, 196, 197, 198, 199, 200, 201, 202, 203, 204, 205, 206, 207, 208, 209, 210, 211, 212, 213, 214, 215, 216, 217, 218, 219, 220, 221, 222, 223, 224, 225, 226, 227, 228, 229, 230, 231, 232, 233, 234, 235, 236, 237, 238, 239, 240, 241, 242, 243, 244, 245, 246, 247, 248, 249, 250, 251, 252, 253, 254, 255, 256, 257, 258, 259, 260, 261, 262, 263, 264, 265, 266, 267, 268, 269, 270, 271, 272, 273, 274, 275, 276, 277, 278, 279, 280, 281, 282, 283, 284, 285, 286, 287, 288, 289, 290, 291, 292, 293, 294, 295, 296, 297, 298, 299, 300, 301, 302, 303, 304, 305, 306, 307, 308, 309, 310, 311, 312, 313, 314, 315, 316, 317, 318, 319, 320, 321, 322, 323, 324, 325, 326, 327, 328, 329, 330, 331, 332, 333, 334, 335, 336, 337, 338, 339, 340, 341, 342, 343, 344, 345, 346, 347, 348, 349, 350, 351, 352, 353, 354, 355, 356, 357, 358, 359, 360, 361, 362, 363, 364, 365, 366, 367, 368, 369, 370, 371, 372, 373, 374, 375, 376, 377, 378, 379, 380, 381, 382, 383, 384, 385, 386, 387, 388, 389, 390, 391, 392, 393, 394, 395, 396, 397, 398, 399, 400, 401, 402, 403, 404, 405, 406, 407, 408, 409, 410, 411, 412, 413, 414, 415, 416, 417, 418, 419, 420, 421, 422, 423, 424, 425, 426, 427, 428, 429, 430, 431, 432, 433, 434, 435, 436, 437, 438, 439, 440, 441, 442, 443, 444, 445, 446, 447, 448, 449, 450, 451, 452, 453, 454, 455, 456, 457, 458, 459, 460, 461, 462, 463, 464, 465, 466, 467, 468, 469, 470, 471, 472, 473, 474, 475, 476, 477, 478, 479, 480, 481, 482, 483, 484, 485, 486, 487, 488, 489, 490, 491, 492, 493, 494, 495, 496, 497, 498, 499, 500, 501, 502, 503, 504, 505, 506, 507, 508, 509, 510], "AcquisitionTime": ["104304.997500", "104305.607500", "104306.217500", "104306.827500", "104307.437500", "104308.047500", "104308.657500", "104309.267500", "104309.877500", "104310.487500", "104311.097500", "104311.707500", "104312.317500", "104312.927500", "104313.537500", "104314.147500", "104314.757500", "104315.367500", "104315.977500", "104316.587500", "104317.197500", "104317.807500", "104318.417500", "104319.027500", "104319.637500", "104320.247500", "104320.857500", "104321.467500", "104322.077500", "104322.687500", "104323.297500", "104323.907500", "104324.517500", "104325.127500", "104325.737500", "104326.347500", "104326.957500", "104327.567500", "104328.177500", "104328.787500", "104329.397500", "104330.007500", "104330.617500", "104331.227500", "104331.837500", "104332.447500", "104333.057500", "104333.667500", "104334.277500", "104334.887500", "104335.497500", "104336.107500", "104336.717500", "104337.327500", "104337.937500", "104338.547500", "104339.157500", "104339.767500", "104340.377500", "104340.987500", "104341.597500", "104342.207500", "104342.817500", "104343.427500", "104344.037500", "104344.647500", "104345.257500", "104345.867500", "104346.477500", "104347.087500", "104347.697500", "104348.307500", "104348.917500", "104349.527500", "104350.137500", "104350.747500", "104351.357500", "104351.967500", "104352.577500", "104353.187500", "104353.797500", "104354.407500", "104355.017500", "104355.627500", "104356.237500", "104356.847500", "104357.457500", "104358.067500", "104358.677500", "104359.287500", "104359.897500", "104400.507500", "104401.117500", "104401.727500", "104402.337500", "104402.947500", "104403.557500", "104404.167500", "104404.777500", "104405.387500", "104405.997500", "104406.607500", "104407.217500", "104407.827500", "104408.437500", "104409.047500", "104409.657500", "104410.267500", "104410.877500", "104411.487500", "104412.097500", "104412.707500", "104413.317500", "104413.927500", "104414.537500", "104415.147500", "104415.757500", "104416.367500", "104416.977500", "104417.587500", "104418.197500", "104418.807500", "104419.417500", "104420.027500", "104420.637500", "104421.247500", "104421.857500", "104422.467500", "104423.077500", "104423.687500", "104424.297500", "104424.907500", "104425.517500", "104426.127500", "104426.737500", "104427.347500", "104427.957500", "104428.567500", "104429.177500", "104429.787500", "104430.397500", "104431.007500", "104431.617500", "104432.227500", "104432.837500", "104433.447500", "104434.057500", "104434.667500", "104435.277500", "104435.887500", "104436.497500", "104437.107500", "104437.717500", "104438.327500", "104438.937500", "104439.547500", "104440.157500", "104440.767500", "104441.377500", "104441.987500", "104442.597500", "104443.207500", "104443.817500", "104444.427500", "104445.037500", "104445.647500", "104446.257500", "104446.867500", "104447.477500", "104448.087500", "104448.697500", "104449.307500", "104449.917500", "104450.527500", "104451.137500", "104451.747500", "104452.357500", "104452.967500", "104453.577500", "104454.187500", "104454.797500", "104455.407500", "104456.017500", "104456.627500", "104457.237500", "104457.847500", "104458.457500", "104459.067500", "104459.677500", "104500.287500", "104500.897500", "104501.507500", "104502.117500", "104502.727500", "104503.337500", "104503.947500", "104504.557500", "104505.167500", "104505.777500", "104506.387500", "104506.997500", "104507.607500", "104508.217500", "104508.827500", "104509.437500", "104510.047500", "104510.657500", "104511.267500", "104511.877500", "104512.487500", "104513.097500", "104513.707500", "104514.317500", "104514.927500", "104515.537500", "104516.147500", "104516.757500", "104517.367500", "104517.977500", "104518.587500", "104519.197500", "104519.807500", "104520.417500", "104521.027500", "104521.637500", "104522.247500", "104522.857500", "104523.467500", "104524.077500", "104524.687500", "104525.297500", "104525.907500", "104526.517500", "104527.127500", "104527.737500", "104528.347500", "104528.957500", "104529.567500", "104530.177500", "104530.787500", "104531.397500", "104532.007500", "104532.617500", "104533.227500", "104533.837500", "104534.447500", "104535.057500", "104535.667500", "104536.277500", "104536.887500", "104537.497500", "104538.107500", "104538.717500", "104539.327500", "104539.937500", "104540.547500", "104541.157500", "104541.767500", "104542.377500", "104542.987500", "104543.597500", "104544.207500", "104544.817500", "104545.427500", "104546.037500", "104546.647500", "104547.257500", "104547.867500", "104548.477500", "104549.087500", "104549.697500", "104550.307500", "104550.917500", "104551.527500", "104552.137500", "104552.747500", "104553.357500", "104553.967500", "104554.577500", "104555.187500", "104555.797500", "104556.407500", "104557.017500", "104557.627500", "104558.237500", "104558.847500", "104559.457500", "104600.067500", "104600.677500", "104601.287500", "104601.897500", "104602.507500", "104603.117500", "104603.727500", "104604.337500", "104604.947500", "104605.557500", "104606.167500", "104606.777500", "104607.387500", "104607.997500", "104608.607500", "104609.217500", "104609.827500", "104610.437500", "104611.047500", "104611.657500", "104612.267500", "104612.877500", "104613.487500", "104614.097500", "104614.707500", "104615.317500", "104615.927500", "104616.537500", "104617.147500", "104617.757500", "104618.367500", "104618.977500", "104619.587500", "104620.197500", "104620.807500", "104621.417500", "104622.027500", "104622.637500", "104623.247500", "104623.857500", "104624.467500", "104625.077500", "104625.687500", "104626.297500", "104626.907500", "104627.517500", "104628.127500", "104628.737500", "104629.347500", "104629.957500", "104630.567500", "104631.177500", "104631.787500", "104632.397500", "104633.007500", "104633.617500", "104634.227500", "104634.837500", "104635.447500", "104636.057500", "104636.667500", "104637.277500", "104637.887500", "104638.497500", "104639.107500", "104639.717500", "104640.327500", "104640.937500", "104641.547500", "104642.157500", "104642.767500", "104643.377500", "104643.987500", "104644.597500", "104645.207500", "104645.817500", "104646.427500", "104647.037500", "104647.647500", "104648.257500", "104648.867500", "104649.477500", "104650.087500", "104650.697500", "104651.307500", "104651.917500", "104652.527500", "104653.137500", "104653.747500", "104654.357500", "104654.967500", "104655.577500", "104656.187500", "104656.797500", "104657.407500", "104658.017500", "104658.627500", "104659.237500", "104659.847500", "104700.457500", "104701.067500", "104701.677500", "104702.287500", "104702.897500", "104703.507500", "104704.117500", "104704.727500", "104705.337500", "104705.947500", "104706.557500", "104707.167500", "104707.777500", "104708.387500", "104708.997500", "104709.607500", "104710.217500", "104710.827500", "104711.437500", "104712.047500", "104712.657500", "104713.267500", "104713.877500", "104714.487500", "104715.097500", "104715.707500", "104716.317500", "104716.927500", "104717.537500", "104718.147500", "104718.757500", "104719.367500", "104719.977500", "104720.587500", "104721.197500", "104721.807500", "104722.417500", "104723.027500", "104723.637500", "104724.247500", "104724.857500", "104725.467500", "104726.077500", "104726.687500", "104727.297500", "104727.907500", "104728.517500", "104729.127500", "104729.737500", "104730.347500", "104730.957500", "104731.567500", "104732.177500", "104732.787500", "104733.397500", "104734.007500", "104734.617500", "104735.227500", "104735.837500", "104736.447500", "104737.057500", "104737.667500", "104738.277500", "104738.887500", "104739.497500", "104740.107500", "104740.717500", "104741.327500", "104741.937500", "104742.547500", "104743.157500", "104743.767500", "104744.377500", "104744.987500", "104745.597500", "104746.207500", "104746.817500", "104747.427500", "104748.037500", "104748.647500", "104749.257500", "104749.867500", "104750.477500", "104751.087500", "104751.697500", "104752.307500", "104752.917500", "104753.527500", "104754.137500", "104754.747500", "104755.357500", "104755.967500", "104756.577500", "104757.187500", "104757.797500", "104758.407500", "104759.017500", "104759.627500", "104800.237500", "104800.847500", "104801.457500", "104802.067500", "104802.677500", "104803.287500", "104803.897500", "104804.507500", "104805.117500", "104805.727500", "104806.337500", "104806.947500", "104807.557500", "104808.167500", "104808.777500", "104809.387500", "104809.997500", "104810.607500", "104811.217500", "104811.827500", "104812.437500", "104813.047500", "104813.657500", "104814.267500", "104814.877500", "104815.487500"], "ContentTime": ["104336.716000", "104336.719000", "104336.722000", "104336.725000", "104336.727000", "104336.729000", "104336.732000", "104336.734000", "104336.744000", "104336.747000", "104336.749000", "104336.752000", "104336.754000", "104336.756000", "104336.759000", "104336.761000", "104336.764000", "104336.766000", "104336.769000", "104336.771000", "104336.773000", "104336.776000", "104336.778000", "104336.781000", "104336.783000", "104336.785000", "104336.788000", "104336.790000", "104336.793000", "104336.795000", "104336.798000", "104336.805000", "104336.807000", "104336.810000", "104336.812000", "104336.815000", "104336.817000", "104336.819000", "104336.822000", "104336.824000", "104336.827000", "104336.829000", "104336.831000", "104336.834000", "104336.836000", "104336.839000", "104336.841000", "104336.843000", "104336.846000", "104336.848000", "104356.707000", "104356.710000", "104356.712000", "104356.715000", "104356.717000", "104356.720000", "104356.723000", "104356.725000", "104356.727000", "104356.730000", "104356.732000", "104356.735000", "104356.737000", "104356.740000", "104356.742000", "104356.744000", "104356.747000", "104356.749000", "104356.752000", "104356.754000", "104356.756000", "104356.770000", "104356.772000", "104356.774000", "104356.777000", "104356.779000", "104356.782000", "104356.785000", "104356.787000", "104356.790000", "104356.792000", "104356.795000", "104356.797000", "104416.707000", "104416.710000", "104416.712000", "104416.715000", "104416.717000", "104416.719000", "104416.722000", "104416.724000", "104416.727000", "104416.729000", "104416.732000", "104416.734000", "104416.737000", "104416.739000", "104416.742000", "104416.744000", "104416.746000", "104416.749000", "104416.751000", "104416.754000", "104416.756000", "104416.759000", "104416.762000", "104416.764000", "104416.766000", "104416.769000", "104416.772000", "104416.774000", "104416.776000", "104416.779000", "104416.781000", "104416.784000", "104416.786000", "104436.707000", "104436.710000", "104436.712000", "104436.715000", "104436.717000", "104436.720000", "104436.722000", "104436.725000", "104436.727000", "104436.729000", "104436.732000", "104436.734000", "104436.736000", "104436.739000", "104436.741000", "104436.744000", "104436.746000", "104436.748000", "104436.751000", "104436.753000", "104436.756000", "104436.758000", "104436.761000", "104436.763000", "104436.765000", "104436.768000", "104436.770000", "104436.773000", "104436.775000", "104436.777000", "104436.780000", "104436.782000", "104436.785000", "104456.707000", "104456.710000", "104456.713000", "104456.715000", "104456.718000", "104456.720000", "104456.723000", "104456.725000", "104456.728000", "104456.730000", "104456.733000", "104456.735000", "104456.737000", "104456.740000", "104456.742000", "104456.745000", "104456.748000", "104456.751000", "104456.753000", "104456.756000", "104456.758000", "104456.761000", "104456.763000", "104456.766000", "104456.768000", "104456.771000", "104456.773000", "104456.776000", "104456.778000", "104456.780000", "104456.783000", "104456.795000", "104516.707000", "104516.710000", "104516.712000", "104516.715000", "104516.717000", "104516.720000", "104516.722000", "104516.725000", "104516.727000", "104516.729000", "104516.732000", "104516.734000", "104516.737000", "104516.739000", "104516.742000", "104516.744000", "104516.747000", "104516.749000", "104516.751000", "104516.754000", "104516.756000", "104516.759000", "104516.761000", "104516.764000", "104516.766000", "104516.768000", "104516.771000", "104516.773000", "104516.776000", "104516.778000", "104516.781000", "104516.783000", "104516.785000", "104536.707000", "104536.710000", "104536.712000", "104536.715000", "104536.717000", "104536.720000", "104536.722000", "104536.724000", "104536.727000", "104536.729000", "104536.732000", "104536.734000", "104536.736000", "104536.739000", "104536.741000", "104536.744000", "104536.746000", "104536.749000", "104536.751000", "104536.753000", "104536.756000", "104536.758000", "104536.761000", "104536.763000", "104536.766000", "104536.768000", "104536.770000", "104536.773000", "104536.775000", "104536.778000", "104536.780000", "104536.783000", "104536.785000", "104556.708000", "104556.710000", "104556.713000", "104556.715000", "104556.717000", "104556.720000", "104556.722000", "104556.725000", "104556.727000", "104556.730000", "104556.732000", "104556.734000", "104556.737000", "104556.743000", "104556.745000", "104556.748000", "104556.750000", "104556.753000", "104556.767000", "104556.769000", "104556.771000", "104556.774000", "104556.776000", "104556.779000", "104556.781000", "104556.784000", "104556.786000", "104556.788000", "104556.791000", "104556.793000", "104556.796000", "104556.798000", "104556.801000", "104616.707000", "104616.711000", "104616.713000", "104616.716000", "104616.718000", "104616.721000", "104616.723000", "104616.726000", "104616.728000", "104616.731000", "104616.733000", "104616.735000", "104616.738000", "104616.740000", "104616.743000", "104616.745000", "104616.748000", "104616.750000", "104616.753000", "104616.755000", "104616.757000", "104616.760000", "104616.762000", "104616.765000", "104616.767000", "104616.770000", "104616.772000", "104616.774000", "104616.777000", "104616.779000", "104616.782000", "104616.784000", "104616.786000", "104636.707000", "104636.710000", "104636.712000", "104636.715000", "104636.717000", "104636.720000", "104636.722000", "104636.724000", "104636.727000", "104636.729000", "104636.732000", "104636.734000", "104636.737000", "104636.739000", "104636.741000", "104636.744000", "104636.746000", "104636.749000", "104636.751000", "104636.753000", "104636.756000", "104636.758000", "104636.761000", "104636.764000", "104636.767000", "104636.769000", "104636.772000", "104636.774000", "104636.777000", "104636.779000", "104636.786000", "104636.789000", "104656.707000", "104656.710000", "104656.712000", "104656.715000", "104656.717000", "104656.720000", "104656.722000", "104656.724000", "104656.727000", "104656.730000", "104656.732000", "104656.735000", "104656.737000", "104656.739000", "104656.742000", "104656.745000", "104656.747000", "104656.749000", "104656.752000", "104656.754000", "104656.757000", "104656.759000", "104656.762000", "104656.764000", "104656.766000", "104656.769000", "104656.771000", "104656.774000", "104656.776000", "104656.778000", "104656.781000", "104656.784000", "104656.786000", "104716.707000", "104716.710000", "104716.712000", "104716.715000", "104716.717000", "104716.720000", "104716.722000", "104716.725000", "104716.727000", "104716.729000", "104716.732000", "104716.734000", "104716.737000", "104716.739000", "104716.742000", "104716.744000", "104716.746000", "104716.749000", "104716.751000", "104716.754000", "104716.756000", "104716.759000", "104716.761000", "104716.764000", "104716.766000", "104716.768000", "104716.771000", "104716.773000", "104716.776000", "104716.778000", "104716.781000", "104716.783000", "104716.785000", "104736.708000", "104736.710000", "104736.713000", "104736.715000", "104736.718000", "104736.720000", "104736.723000", "104736.725000", "104736.727000", "104736.730000", "104736.732000", "104736.735000", "104736.737000", "104736.740000", "104736.742000", "104736.745000", "104736.747000", "104736.749000", "104736.752000", "104736.754000", "104736.757000", "104736.759000", "104736.761000", "104736.764000", "104736.766000", "104736.769000", "104736.772000", "104736.774000", "104736.777000", "104736.779000", "104736.782000", "104736.784000", "104736.787000", "104756.707000", "104756.710000", "104756.713000", "104756.715000", "104756.717000", "104756.720000", "104756.722000", "104756.725000", "104756.727000", "104756.730000", "104756.732000", "104756.735000", "104756.737000", "104756.740000", "104756.742000", "104756.744000", "104756.747000", "104756.749000", "104756.752000", "104756.754000", "104756.756000", "104756.759000", "104756.761000", "104756.764000", "104756.766000", "104756.769000", "104756.771000", "104756.774000", "104756.776000", "104756.778000", "104756.781000", "104756.783000", "104756.786000", "104816.708000", "104816.712000", "104816.714000", "104816.718000", "104816.720000", "104816.723000", "104816.729000", "104816.733000", "104816.735000", "104816.739000", "104816.741000", "104816.745000", "104816.749000", "104816.754000", "104816.757000", "104816.760000", "104816.764000", "104816.771000", "104816.774000", "104816.777000", "104816.780000", "104816.784000", "104816.786000", "104816.789000", "104816.791000", "104816.794000", "104816.796000", "104816.799000", "104816.802000", "104816.805000", "104816.807000", "104816.810000", "104816.833000"], "InstanceCreationTime": ["104336.716000", "104336.719000", "104336.722000", "104336.725000", "104336.727000", "104336.729000", "104336.732000", "104336.734000", "104336.744000", "104336.747000", "104336.749000", "104336.752000", "104336.754000", "104336.756000", "104336.759000", "104336.761000", "104336.764000", "104336.766000", "104336.769000", "104336.771000", "104336.773000", "104336.776000", "104336.778000", "104336.781000", "104336.783000", "104336.785000", "104336.788000", "104336.790000", "104336.793000", "104336.795000", "104336.798000", "104336.805000", "104336.807000", "104336.810000", "104336.812000", "104336.815000", "104336.817000", "104336.819000", "104336.822000", "104336.824000", "104336.827000", "104336.829000", "104336.831000", "104336.834000", "104336.836000", "104336.839000", "104336.841000", "104336.843000", "104336.846000", "104336.848000", "104356.707000", "104356.710000", "104356.712000", "104356.715000", "104356.717000", "104356.720000", "104356.723000", "104356.725000", "104356.727000", "104356.730000", "104356.732000", "104356.735000", "104356.737000", "104356.740000", "104356.742000", "104356.744000", "104356.747000", "104356.749000", "104356.752000", "104356.754000", "104356.756000", "104356.770000", "104356.772000", "104356.774000", "104356.777000", "104356.779000", "104356.782000", "104356.785000", "104356.787000", "104356.790000", "104356.792000", "104356.795000", "104356.797000", "104416.707000", "104416.710000", "104416.712000", "104416.715000", "104416.717000", "104416.719000", "104416.722000", "104416.724000", "104416.727000", "104416.729000", "104416.732000", "104416.734000", "104416.737000", "104416.739000", "104416.742000", "104416.744000", "104416.746000", "104416.749000", "104416.751000", "104416.754000", "104416.756000", "104416.759000", "104416.762000", "104416.764000", "104416.766000", "104416.769000", "104416.772000", "104416.774000", "104416.776000", "104416.779000", "104416.781000", "104416.784000", "104416.786000", "104436.707000", "104436.710000", "104436.712000", "104436.715000", "104436.717000", "104436.720000", "104436.722000", "104436.725000", "104436.727000", "104436.729000", "104436.732000", "104436.734000", "104436.736000", "104436.739000", "104436.741000", "104436.744000", "104436.746000", "104436.748000", "104436.751000", "104436.753000", "104436.756000", "104436.758000", "104436.761000", "104436.763000", "104436.765000", "104436.768000", "104436.770000", "104436.773000", "104436.775000", "104436.777000", "104436.780000", "104436.782000", "104436.785000", "104456.707000", "104456.710000", "104456.713000", "104456.715000", "104456.718000", "104456.720000", "104456.723000", "104456.725000", "104456.728000", "104456.730000", "104456.733000", "104456.735000", "104456.737000", "104456.740000", "104456.742000", "104456.745000", "104456.748000", "104456.751000", "104456.753000", "104456.756000", "104456.758000", "104456.761000", "104456.763000", "104456.766000", "104456.768000", "104456.771000", "104456.773000", "104456.776000", "104456.778000", "104456.780000", "104456.783000", "104456.795000", "104516.707000", "104516.710000", "104516.712000", "104516.715000", "104516.717000", "104516.720000", "104516.722000", "104516.725000", "104516.727000", "104516.729000", "104516.732000", "104516.734000", "104516.737000", "104516.739000", "104516.742000", "104516.744000", "104516.747000", "104516.749000", "104516.751000", "104516.754000", "104516.756000", "104516.759000", "104516.761000", "104516.764000", "104516.766000", "104516.768000", "104516.771000", "104516.773000", "104516.776000", "104516.778000", "104516.781000", "104516.783000", "104516.785000", "104536.707000", "104536.710000", "104536.712000", "104536.715000", "104536.717000", "104536.720000", "104536.722000", "104536.724000", "104536.727000", "104536.729000", "104536.732000", "104536.734000", "104536.736000", "104536.739000", "104536.741000", "104536.744000", "104536.746000", "104536.749000", "104536.751000", "104536.753000", "104536.756000", "104536.758000", "104536.761000", "104536.763000", "104536.766000", "104536.768000", "104536.770000", "104536.773000", "104536.775000", "104536.778000", "104536.780000", "104536.783000", "104536.785000", "104556.708000", "104556.710000", "104556.713000", "104556.715000", "104556.717000", "104556.720000", "104556.722000", "104556.725000", "104556.727000", "104556.730000", "104556.732000", "104556.734000", "104556.737000", "104556.743000", "104556.745000", "104556.748000", "104556.750000", "104556.753000", "104556.767000", "104556.769000", "104556.771000", "104556.774000", "104556.776000", "104556.779000", "104556.781000", "104556.784000", "104556.786000", "104556.788000", "104556.791000", "104556.793000", "104556.796000", "104556.798000", "104556.801000", "104616.707000", "104616.711000", "104616.713000", "104616.716000", "104616.718000", "104616.721000", "104616.723000", "104616.726000", "104616.728000", "104616.731000", "104616.733000", "104616.735000", "104616.738000", "104616.740000", "104616.743000", "104616.745000", "104616.748000", "104616.750000", "104616.753000", "104616.755000", "104616.757000", "104616.760000", "104616.762000", "104616.765000", "104616.767000", "104616.770000", "104616.772000", "104616.774000", "104616.777000", "104616.779000", "104616.782000", "104616.784000", "104616.786000", "104636.707000", "104636.710000", "104636.712000", "104636.715000", "104636.717000", "104636.720000", "104636.722000", "