{"AcquisitionMatrixPE": 64, "AcquisitionNumber": 1, "AcquisitionTime": "10:56:2.790000", "BandwidthPerPixelPhaseEncode": 28.935, "BaseResolution": 64, "BodyPartExamined": "BRAIN", "CoilCombinationMethod": "Sum of Squares", "ConsistencyInfo": "N4_VE11E_LATEST_20181129", "ConversionSoftware": "dcm2niix", "ConversionSoftwareVersion": "v1.0.20230411", "DerivedVendorReportedEchoSpacing": 0.000540003, "DeviceSerialNumber": "166182", "DwellTime": 3.4e-06, "EchoTime": 0.032, "EchoTrainLength": 64, "EffectiveEchoSpacing": 0.000540003, "FlipAngle": 40, "HeudiconvVersion": "0.13.1", "ImageOrientationPatientDICOM": [0.993055, -0.111115, -0.0386582, 0.111213, 0.993796, 0.000407248], "ImageOrientationText": "Tra>Sag(-2.2)>Cor(0.3)", "ImageType": ["ORIGINAL", "PRIMARY", "M", "ND", "NORM", "MOSAIC"], "ImagingFrequency": 123.256078, "InPlanePhaseEncodingDirectionDICOM": "COL", "InstitutionAddress": "PEARSE STREET .,City,District,IE,D2", "InstitutionName": "TCIN", "InstitutionalDepartmentName": "MRI", "MRAcquisitionType": "2D", "MagneticFieldStrength": 3, "Manufacturer": "Siemens", "ManufacturersModelName": "Prisma", "Modality": "MR", "MultibandAccelerationFactor": 4, "NonlinearGradientCorrection": false, "PartialFourier": 1, "PatientPosition": "HFS", "PercentPhaseFOV": 100, "PercentSampling": 100, "PhaseEncodingDirection": "j-", "PhaseEncodingSteps": 64, "PhaseResolution": 1, "PixelBandwidth": 2300, "ProcedureStepDescription": "Rhodri^Head BOLD", "ProtocolName": "cmrr_mbep2d_Pictures_AP_RDS", "PulseSequenceDetails": "%SiemensSeq%\\ep2d_bold", "ReceiveCoilActiveElements": "HC2,4,6,7;SC", "ReceiveCoilName": "SpecialPurpose_4", "ReconMatrixPE": 64, "RefLinesPE": 12, "RepetitionTime": 0.61, "SAR": 0.273845, "ScanOptions": "FS", "ScanningSequence": "EP", "SequenceName": "*epfid2d1_64", "SequenceVariant": "SK", "SeriesDescription": "cmrr_mbep2d_Pictures_AP_RDS", "SeriesNumber": 9, "ShimSetting": [-3629, -7616, 3863, 945, -178, 357, 392, 136], "SliceThickness": 3, "SliceTiming": [0.2625, 0, 0.3275, 0.065, 0.3925, 0.13, 0.4575, 0.195, 0.525, 0.2625, 0, 0.3275, 0.065, 0.3925, 0.13, 0.4575, 0.195, 0.525, 0.2625, 0, 0.3275, 0.065, 0.3925, 0.13, 0.4575, 0.195, 0.525, 0.2625, 0, 0.3275, 0.065, 0.3925, 0.13, 0.4575, 0.195, 0.525], "SoftwareVersions": "syngo MR E11", "SpacingBetweenSlices": 3.3, "StationName": "AWP166182", "TaskName": "pictures", "TotalReadoutTime": 0.0340202, "TxRefAmp": 241.752, "dcmmeta_affine": [[-2.979166269302368, 0.3336404860019684, -0.12663137912750244, 89.90777587890625], [0.3333441913127899, 2.981389284133911, 0.015522325411438942, -112.58267211914062], [-0.11597464978694916, -0.0012217429466545582, 3.2975330352783203, -94.27235412597656], [0.0, 0.0, 0.0, 1.0]], "dcmmeta_reorient_transform": [[0.0, -1.0, 0.0, 63.0], [1.0, 0.0, 0.0, 0.0], [0.0, 0.0, 1.0, 0.0], [0.0, 0.0, 0.0, 1.0]], "dcmmeta_shape": [64, 64, 36, 161], "dcmmeta_slice_dim": 2, "dcmmeta_version": 0.6, "global": {"const": {"AcquisitionMatrix": [64, 0, 0, 64], "AngioFlag": "N", "BitsAllocated": 16, "BitsStored": 12, "BodyPartExamined": "BRAIN", "Columns": 384, "EchoNumbers": 1, "EchoTime": 32.0, "EchoTrainLength": 64, "FlipAngle": 40.0, "HighBit": 11, "ImageOrientationPatient": [0.9930554159774, -0.1111147297599, -0.0386582155349, 0.11121349936471, 0.99379645386187, 0.00040724763287], "ImagePositionPatient": [-640.97620928964, -498.93208790057, -75.988858198882], "ImageType": ["ORIGINAL", "PRIMARY", "M", "ND", "NORM", "MOSAIC"], "ImagedNucleus": "1H", "ImagingFrequency": 123.256078, "InPlanePhaseEncodingDirection": "COL", "MRAcquisitionType": "2D", "MagneticFieldStrength": 3.0, "Manufacturer": "SIEMENS", "ManufacturerModelName": "Prisma", "Modality": "MR", "NumberOfAverages": 1.0, "NumberOfPhaseEncodingSteps": 64, "PercentPhaseFieldOfView": 100.0, "PercentSampling": 100.0, "PerformedProcedureStepStartTime": "103836.504000", "PhotometricInterpretation": "MONOCHROME2", "PixelBandwidth": 2300.0, "PixelRepresentation": 0, "PixelSpacing": [3.0, 3.0], "ProtocolName": "cmrr_mbep2d_Pictures_AP_RDS", "RepetitionTime": 610.0, "Rows": 384, "SAR": 0.27384536489552, "SamplesPerPixel": 1, "ScanOptions": "FS", "ScanningSequence": "EP", "SequenceName": "*epfid2d1_64", "SequenceVariant": "SK", "SeriesDescription": "cmrr_mbep2d_Pictures_AP_RDS", "SeriesNumber": 9, "SeriesTime": "105616.802000", "SliceLocation": -98.181479179769, "SliceThickness": 3.0, "SmallestImagePixelValue": 0, "SoftwareVersions": "syngo MR E11", "SpacingBetweenSlices": 3.300000031849, "SpecificCharacterSet": "ISO_IR 100", "StudyID": "2", "StudyTime": "103836.436000", "TransmitCoilName": "Body", "VariableFlipAngleFlag": "N", "WindowCenterWidthExplanation": "Algo1"}, "slices": {}}, "time": {"samples": {"AcquisitionNumber": [1, 2, 3, 4, 5, 6, 7, 8, 9, 10, 11, 12, 13, 14, 15, 16, 17, 18, 19, 20, 21, 22, 23, 24, 25, 26, 27, 28, 29, 30, 31, 32, 33, 34, 35, 36, 37, 38, 39, 40, 41, 42, 43, 44, 45, 46, 47, 48, 49, 50, 51, 52, 53, 54, 55, 56, 57, 58, 59, 60, 61, 62, 63, 64, 65, 66, 67, 68, 69, 70, 71, 72, 73, 74, 75, 76, 77, 78, 79, 80, 81, 82, 83, 84, 85, 86, 87, 88, 89, 90, 91, 92, 93, 94, 95, 96, 97, 98, 99, 100, 101, 102, 103, 104, 105, 106, 107, 108, 109, 110, 111, 112, 113, 114, 115, 116, 117, 118, 119, 120, 121, 122, 123, 124, 125, 126, 127, 128, 129, 130, 131, 132, 133, 134, 135, 136, 137, 138, 139, 140, 141, 142, 143, 144, 145, 146, 147, 148, 149, 150, 151, 152, 153, 154, 155, 156, 157, 158, 159, 160, 161], "AcquisitionTime": ["105602.790000", "105603.400000", "105604.010000", "105604.620000", "105605.230000", "105605.840000", "105606.450000", "105607.060000", "105607.670000", "105608.280000", "105608.890000", "105609.500000", "105610.110000", "105610.720000", "105611.330000", "105611.940000", "105612.550000", "105613.160000", "105613.770000", "105614.380000", "105614.990000", "105615.600000", "105616.210000", "105616.820000", "105617.430000", "105618.040000", "105618.650000", "105619.260000", "105619.870000", "105620.480000", "105621.090000", "105621.700000", "105622.310000", "105622.920000", "105623.530000", "105624.140000", "105624.750000", "105625.360000", "105625.970000", "105626.580000", "105627.190000", "105627.800000", "105628.410000", "105629.020000", "105629.630000", "105630.240000", "105630.850000", "105631.460000", "105632.070000", "105632.680000", "105633.290000", "105633.900000", "105634.510000", "105635.120000", "105635.730000", "105636.340000", "105636.950000", "105637.560000", "105638.170000", "105638.780000", "105639.390000", "105640.000000", "105640.610000", "105641.220000", "105641.830000", "105642.440000", "105643.050000", "105643.660000", "105644.270000", "105644.880000", "105645.490000", "105646.100000", "105646.710000", "105647.320000", "105647.930000", "105648.540000", "105649.150000", "105649.760000", "105650.370000", "105650.980000", "105651.590000", "105652.200000", "105652.810000", "105653.420000", "105654.030000", "105654.640000", "105655.250000", "105655.860000", "105656.470000", "105657.080000", "105657.690000", "105658.300000", "105658.910000", "105659.520000", "105700.130000", "105700.740000", "105701.350000", "105701.960000", "105702.570000", "105703.180000", "105703.790000", "105704.400000", "105705.010000", "105705.620000", "105706.230000", "105706.840000", "105707.450000", "105708.060000", "105708.670000", "105709.280000", "105709.890000", "105710.500000", "105711.110000", "105711.720000", "105712.330000", "105712.940000", "105713.550000", "105714.160000", "105714.770000", "105715.380000", "105715.990000", "105716.600000", "105717.210000", "105717.820000", "105718.430000", "105719.040000", "105719.650000", "105720.260000", "105720.870000", "105721.480000", "105722.090000", "105722.700000", "105723.310000", "105723.920000", "105724.530000", "105725.140000", "105725.750000", "105726.360000", "105726.970000", "105727.580000", "105728.190000", "105728.800000", "105729.410000", "105730.020000", "105730.630000", "105731.240000", "105731.850000", "105732.460000", "105733.070000", "105733.680000", "105734.290000", "105734.900000", "105735.510000", "105736.120000", "105736.730000", "105737.340000", "105737.950000", "105738.560000", "105739.170000", "105739.780000", "105740.390000"], "ContentTime": ["105616.805000", "105616.808000", "105616.811000", "105616.820000", "105616.823000", "105616.829000", "105616.832000", "105616.834000", "105616.837000", "105616.839000", "105616.841000", "105616.848000", "105616.850000", "105616.853000", "105616.855000", "105616.857000", "105616.860000", "105616.862000", "105616.864000", "105616.867000", "105616.869000", "105636.799000", "105636.802000", "105636.804000", "105636.807000", "105636.809000", "105636.812000", "105636.814000", "105636.817000", "105636.819000", "105636.821000", "105636.824000", "105636.831000", "105636.834000", "105636.836000", "105636.838000", "105636.841000", "105636.843000", "105636.846000", "105636.848000", "105636.850000", "105636.853000", "105636.855000", "105636.857000", "105636.860000", "105636.862000", "105636.865000", "105636.867000", "105636.869000", "105636.872000", "105636.878000", "105636.881000", "105636.883000", "105636.886000", "105656.799000", "105656.802000", "105656.804000", "105656.807000", "105656.815000", "105656.817000", "105656.819000", "105656.822000", "105656.824000", "105656.827000", "105656.829000", "105656.831000", "105656.834000", "105656.836000", "105656.839000", "105656.841000", "105656.843000", "105656.846000", "105656.848000", "105656.850000", "105656.853000", "105656.855000", "105656.858000", "105656.860000", "105656.862000", "105656.865000", "105656.867000", "105656.870000", "105656.872000", "105656.875000", "105656.877000", "105656.879000", "105656.882000", "105716.799000", "105716.802000", "105716.805000", "105716.807000", "105716.809000", "105716.812000", "105716.814000", "105716.817000", "105716.819000", "105716.822000", "105716.824000", "105716.827000", "105716.829000", "105716.831000", "105716.837000", "105716.840000", "105716.842000", "105716.845000", "105716.848000", "105716.850000", "105716.853000", "105716.855000", "105716.857000", "105716.860000", "105716.863000", "105716.866000", "105716.868000", "105716.871000", "105716.873000", "105716.875000", "105716.878000", "105716.880000", "105716.883000", "105736.800000", "105736.803000", "105736.806000", "105736.808000", "105736.811000", "105736.814000", "105736.816000", "105736.819000", "105736.822000", "105736.824000", "105736.827000", "105736.829000", "105736.831000", "105736.834000", "105736.836000", "105736.839000", "105736.841000", "105736.843000", "105736.846000", "105736.848000", "105736.851000", "105736.853000", "105736.855000", "105736.858000", "105736.860000", "105736.862000", "105736.865000", "105736.867000", "105736.870000", "105736.872000", "105736.874000", "105736.877000", "105742.695000", "105742.698000", "105742.700000", "105742.703000", "105742.705000", "105742.707000", "105742.710000", "105742.712000", "105742.715000"], "InstanceCreationTime": ["105616.805000", "105616.808000", "105616.811000", "105616.820000", "105616.823000", "105616.829000", "105616.832000", "105616.834000", "105616.837000", "105616.839000", "105616.841000", "105616.848000", "105616.850000", "105616.853000", "105616.855000", "105616.857000", "105616.860000", "105616.862000", "105616.864000", "105616.867000", "105616.869000", "105636.799000", "105636.802000", "105636.804000", "105636.807000", "105636.809000", "105636.812000", "105636.814000", "105636.817000", "105636.819000", "105636.821000", "105636.824000", "105636.831000", "105636.834000", "105636.836000", "105636.838000", "105636.841000", "105636.843000", "105636.846000", "105636.848000", "105636.850000", "105636.853000", "105636.855000", "105636.857000", "105636.860000", "105636.862000", "105636.865000", "105636.867000", "105636.869000", "105636.872000", "105636.878000", "105636.881000", "105636.883000", "105636.886000", "105656.799000", "105656.802000", "105656.804000", "105656.807000", "105656.815000", "105656.817000", "105656.819000", "105656.822000", "105656.824000", "105656.827000", "105656.829000", "105656.831000", "105656.834000", "105656.836000", "105656.839000", "105656.841000", "105656.843000", "105656.846000", "105656.848000", "105656.850000", "105656.853000", "105656.855000", "105656.858000", "105656.860000", "105656.862000", "105656.865000", "105656.867000", "105656.870000", "105656.872000", "105656.875000", "105656.877000", "105656.879000", "105656.882000", "105716.799000", "105716.802000", "105716.805000", "105716.807000", "105716.809000", "105716.812000", "105716.814000", "105716.817000", "105716.819000", "105716.822000", "105716.824000", "105716.827000", "105716.829000", "105716.831000", "105716.837000", "105716.840000", "105716.842000", "105716.845000", "105716.848000", "105716.850000", "105716.853000", "105716.855000", "105716.857000", "105716.860000", "105716.863000", "105716.866000", "105716.868000", "105716.871000", "105716.873000", "105716.875000", "105716.878000", "105716.880000", "105716.883000", "105736.800000", "105736.803000", "105736.806000", "105736.808000", "105736.811000", "105736.814000", "105736.816000", "105736.819000", "105736.822000", "105736.824000", "105736.827000", "105736.829000", "105736.831000", "105736.834000", "105736.836000", "105736.839000", "105736.841000", "105736.843000", "105736.846000", "105736.848000", "105736.851000", "105736.853000", "105736.855000", "105736.858000", "105736.860000", "105736.862000", "105736.865000", "105736.867000", "105736.870000", "105736.872000", "105736.874000", "105736.877000", "105742.695000", "105742.698000", "105742.700000", "105742.703000", "105742.705000", "105742.707000", "105742.710000", "105742.712000", "105742.715000"], "InstanceNumber": [1, 2, 3, 4, 5, 6, 7, 8, 9, 10, 11, 12, 13, 14, 15, 16, 17, 18, 19, 20, 21, 22, 23, 24, 25, 26, 27, 28, 29, 30, 31, 32, 33, 34, 35, 36, 37, 38, 39, 40, 41, 42, 43, 44, 45, 46, 47, 48, 49, 50, 51, 52, 53, 54, 55, 56, 57, 58, 59, 60, 61, 62, 63, 64, 65, 66, 67, 68, 69, 70, 71, 72, 73, 74, 75, 76, 77, 78, 79, 80, 81, 82, 83, 84, 85, 86, 87, 88, 89, 90, 91, 92, 93, 94, 95, 96, 97, 98, 99, 100, 101, 102, 103, 104, 105, 106, 107, 108, 109, 110, 111, 112, 113, 114, 115, 116, 117, 118, 119, 120, 121, 122, 123, 124, 125, 126, 127, 128, 129, 130, 131, 132, 133, 134, 135, 136, 137, 138, 139, 140, 141, 142, 143, 144, 145, 146, 147, 148, 149, 150, 151, 152, 153, 154, 155, 156, 157, 158, 159, 160, 161], "LargestImagePixelValue": [595, 593, 593, 582, 585, 584, 584, 586, 583, 585, 585, 583, 584, 585, 589, 588, 581, 585, 581, 577, 584, 581, 585, 583, 572, 576, 575, 573, 577, 577, 577, 577, 579, 580, 579, 579, 581, 581, 578, 589, 593, 580, 576, 577, 577, 577, 576, 577, 578, 578, 578, 572, 574, 572, 571, 571, 571, 572, 570, 574, 573, 575, 577, 575, 573, 583, 575, 586, 579, 583, 575, 587, 581, 583, 579, 581, 581, 577, 577, 598, 594, 586, 576, 577, 572, 569, 573, 570, 571, 576, 576, 571, 575, 573, 574, 572, 577, 575, 571, 576, 578, 577, 579, 578, 580, 575, 580, 575, 580, 577, 579, 582, 582, 579, 583, 579, 585, 584, 583, 583, 585, 585, 585, 584, 580, 582, 578, 579, 577, 579, 577, 574, 579, 582, 578, 581, 576, 575, 574, 580, 577, 576, 577, 574, 574, 576, 576, 577, 583, 590, 589, 596, 599, 600, 600, 603, 603, 610, 605, 605, 603], "WindowCenter": [306.0, 304.0, 303.0, 301.0, 301.0, 301.0, 300.0, 300.0, 299.0, 300.0, 300.0, 300.0, 300.0, 300.0, 300.0, 300.0, 299.0, 300.0, 300.0, 299.0, 300.0, 300.0, 300.0, 300.0, 300.0, 300.0, 300.0, 300.0, 301.0, 301.0, 301.0, 301.0, 301.0, 301.0, 301.0, 301.0, 301.0, 302.0, 301.0, 302.0, 303.0, 301.0, 301.0, 301.0, 301.0, 301.0, 301.0, 301.0, 300.0, 300.0, 300.0, 299.0, 300.0, 299.0, 300.0, 300.0, 300.0, 300.0, 300.0, 300.0, 300.0, 301.0, 300.0, 300.0, 301.0, 303.0, 302.0, 302.0, 301.0, 302.0, 302.0, 302.0, 302.0, 301.0, 302.0, 301.0, 302.0, 301.0, 302.0, 304.0, 303.0, 301.0, 302.0, 300.0, 300.0, 299.0, 300.0, 299.0, 300.0, 299.0, 299.0, 298.0, 299.0, 298.0, 299.0, 298.0, 299.0, 299.0, 300.0, 300.0, 300.0, 300.0, 301.0, 300.0, 301.0, 300.0, 301.0, 301.0, 301.0, 301.0, 302.0, 301.0, 301.0, 302.0, 301.0, 302.0, 302.0, 302.0, 302.0, 302.0, 302.0, 301.0, 302.0, 301.0, 301.0, 301.0, 300.0, 301.0, 301.0, 300.0, 301.0, 300.0, 301.0, 301.0, 300.0, 301.0, 300.0, 301.0, 301.0, 301.0, 301.0, 301.0, 301.0, 301.0, 301.0, 302.0, 301.0, 301.0, 301.0, 302.0, 302.0, 303.0, 303.0, 303.0, 303.0, 303.0, 303.0, 304.0, 303.0, 303.0, 303.0], "WindowWidth": [668.0, 664.0, 661.0, 658.0, 658.0, 657.0, 657.0, 657.0, 655.0, 656.0, 655.0, 656.0, 655.0, 655.0, 655.0, 655.0, 654.0, 655.0, 655.0, 653.0, 655.0, 655.0, 656.0, 656.0, 655.0, 655.0, 656.0, 656.0, 657.0, 658.0, 658.0, 658.0, 657.0, 657.0, 657.0, 659.0, 659.0, 659.0, 658.0, 660.0, 662.0, 658.0, 658.0, 658.0, 657.0, 657.0, 657.0, 657.0, 656.0, 656.0, 656.0, 654.0, 655.0, 654.0, 656.0, 656.0, 656.0, 656.0, 656.0, 656.0, 657.0, 658.0, 657.0, 657.0, 657.0, 661.0, 659.0, 659.0, 659.0, 659.0, 659.0, 659.0, 659.0, 659.0, 659.0, 657.0, 660.0, 658.0, 658.0, 662.0, 661.0, 657.0, 659.0, 655.0, 655.0, 654.0, 656.0, 653.0, 655.0, 653.0, 653.0, 651.0, 653.0, 652.0, 653.0, 652.0, 653.0, 652.0, 654.0, 655.0, 655.0, 656.0, 657.0, 655.0, 657.0, 656.0, 658.0, 657.0, 658.0, 657.0, 659.0, 658.0, 658.0, 659.0, 658.0, 660.0, 660.0, 660.0, 660.0, 659.0, 659.0, 658.0, 659.0, 658.0, 658.0, 657.0, 656.0, 657.0, 657.0, 655.0, 657.0, 656.0, 657.0, 658.0, 656.0, 657.0, 656.0, 658.0, 657.0, 658.0, 658.0, 658.0, 657.0, 658.0, 657.0, 659.0, 657.0, 658.0, 658.0, 659.0, 659.0, 661.0, 661.0, 661.0, 661.0, 661.0, 662.0, 662.0, 661.0, 661.0, 662.0]}, "slices": {}}, "EventTimestamp": "10-58-32"}