{"AcquisitionMatrixPE": 64, "AcquisitionNumber": 1, "AcquisitionTime": "15:23:36.687500", "BandwidthPerPixelPhaseEncode": 28.935, "BaseResolution": 64, "BodyPartExamined": "BRAIN", "CoilCombinationMethod": "Sum of Squares", "ConsistencyInfo": "N4_VE11E_LATEST_20181129", "ConversionSoftware": "dcm2niix", "ConversionSoftwareVersion": "v1.0.20230411", "DerivedVendorReportedEchoSpacing": 0.000540003, "DeviceSerialNumber": "166182", "DwellTime": 3.4e-06, "EchoTime": 0.032, "EchoTrainLength": 64, "EffectiveEchoSpacing": 0.000540003, "FlipAngle": 40, "HeudiconvVersion": "0.13.1", "ImageOrientationPatientDICOM": [0.998165, 0.0604806, 0.00294851, -0.0605258, 0.995097, 0.078219], "ImageOrientationText": "Tra>Cor(4.5)>Sag(-0.1)", "ImageType": ["ORIGINAL", "PRIMARY", "M", "ND", "NORM", "MOSAIC"], "ImagingFrequency": 123.256151, "InPlanePhaseEncodingDirectionDICOM": "COL", "InstitutionAddress": "PEARSE STREET .,City,District,IE,D2", "InstitutionName": "TCIN", "InstitutionalDepartmentName": "MRI", "MRAcquisitionType": "2D", "MagneticFieldStrength": 3, "Manufacturer": "Siemens", "ManufacturersModelName": "Prisma", "Modality": "MR", "MultibandAccelerationFactor": 4, "NonlinearGradientCorrection": false, "PartialFourier": 1, "PatientPosition": "HFS", "PercentPhaseFOV": 100, "PercentSampling": 100, "PhaseEncodingDirection": "j-", "PhaseEncodingSteps": 64, "PhaseResolution": 1, "PixelBandwidth": 2300, "ProcedureStepDescription": "Rhodri^Head BOLD", "ProtocolName": "cmrr_mbep2d_Pictures_AP_RDS", "PulseSequenceDetails": "%SiemensSeq%\\ep2d_bold", "ReceiveCoilActiveElements": "HC2,4,6,7;SC", "ReceiveCoilName": "SpecialPurpose_4", "ReconMatrixPE": 64, "RefLinesPE": 12, "RepetitionTime": 0.61, "SAR": 0.27946, "ScanOptions": "FS", "ScanningSequence": "EP", "SequenceName": "*epfid2d1_64", "SequenceVariant": "SK", "SeriesDescription": "cmrr_mbep2d_Pictures_AP_RDS", "SeriesNumber": 11, "ShimSetting": [-3655, -7433, 3888, 1058, 111, 158, 32, -79], "SliceThickness": 3, "SliceTiming": [0.2625, 0, 0.3275, 0.065, 0.3925, 0.13, 0.4575, 0.1975, 0.525, 0.2625, 0, 0.3275, 0.065, 0.3925, 0.13, 0.4575, 0.1975, 0.525, 0.2625, 0, 0.3275, 0.065, 0.3925, 0.13, 0.4575, 0.1975, 0.525, 0.2625, 0, 0.3275, 0.065, 0.3925, 0.13, 0.4575, 0.1975, 0.525], "SoftwareVersions": "syngo MR E11", "SpacingBetweenSlices": 3.3, "StationName": "AWP166182", "TaskName": "pictures", "TotalReadoutTime": 0.0340202, "TxRefAmp": 238.378, "dcmmeta_affine": [[-2.994495153427124, -0.18157735466957092, -0.005929038859903812, 103.67974090576172], [-0.18144184350967407, 2.9852914810180664, 0.2582380771636963, -93.83280944824219], [0.008845536969602108, -0.23465709388256073, 3.289875030517578, -85.5820083618164], [0.0, 0.0, 0.0, 1.0]], "dcmmeta_reorient_transform": [[0.0, -1.0, 0.0, 63.0], [1.0, 0.0, 0.0, 0.0], [0.0, 0.0, 1.0, 0.0], [0.0, 0.0, 0.0, 1.0]], "dcmmeta_shape": [64, 64, 36, 255], "dcmmeta_slice_dim": 2, "dcmmeta_version": 0.6, "global": {"const": {"AcquisitionMatrix": [64, 0, 0, 64], "AngioFlag": "N", "BitsAllocated": 16, "BitsStored": 12, "BodyPartExamined": "BRAIN", "Columns": 384, "EchoNumbers": 1, "EchoTime": 32.0, "EchoTrainLength": 64, "FlipAngle": 40.0, "HighBit": 11, "ImageOrientationPatient": [0.9981650172178, 0.06048061405806, 0.00294851246443, -0.0605257825137, 0.99509718769829, 0.07821903020394], "ImagePositionPatient": [-542.30720371758, -600.91790462052, -139.32582305842], "ImageType": ["ORIGINAL", "PRIMARY", "M", "ND", "NORM", "MOSAIC"], "ImagedNucleus": "1H", "ImagingFrequency": 123.256151, "InPlanePhaseEncodingDirection": "COL", "MRAcquisitionType": "2D", "MagneticFieldStrength": 3.0, "Manufacturer": "SIEMENS", "ManufacturerModelName": "Prisma", "Modality": "MR", "NumberOfAverages": 1.0, "NumberOfPhaseEncodingSteps": 64, "PercentPhaseFieldOfView": 100.0, "PercentSampling": 100.0, "PerformedProcedureStepStartTime": "143115.336000", "PhotometricInterpretation": "MONOCHROME2", "PixelBandwidth": 2300.0, "PixelRepresentation": 0, "PixelSpacing": [3.0, 3.0], "ProtocolName": "cmrr_mbep2d_Pictures_AP_RDS", "RepetitionTime": 610.0, "Rows": 384, "SAR": 0.27946017479531, "SamplesPerPixel": 1, "ScanOptions": "FS", "ScanningSequence": "EP", "SequenceName": "*epfid2d1_64", "SequenceVariant": "SK", "SeriesDescription": "cmrr_mbep2d_Pictures_AP_RDS", "SeriesNumber": 11, "SeriesTime": "152354.246000", "SliceLocation": -92.848494497962, "SliceThickness": 3.0, "SmallestImagePixelValue": 0, "SoftwareVersions": "syngo MR E11", "SpacingBetweenSlices": 3.2999999104184, "SpecificCharacterSet": "ISO_IR 100", "StudyID": "1", "StudyTime": "143115.248000", "TransmitCoilName": "Body", "VariableFlipAngleFlag": "N", "WindowCenterWidthExplanation": "Algo1"}, "slices": {}}, "time": {"samples": {"AcquisitionNumber": [1, 2, 3, 4, 5, 6, 7, 8, 9, 10, 11, 12, 13, 14, 15, 16, 17, 18, 19, 20, 21, 22, 23, 24, 25, 26, 27, 28, 29, 30, 31, 32, 33, 34, 35, 36, 37, 38, 39, 40, 41, 42, 43, 44, 45, 46, 47, 48, 49, 50, 51, 52, 53, 54, 55, 56, 57, 58, 59, 60, 61, 62, 63, 64, 65, 66, 67, 68, 69, 70, 71, 72, 73, 74, 75, 76, 77, 78, 79, 80, 81, 82, 83, 84, 85, 86, 87, 88, 89, 90, 91, 92, 93, 94, 95, 96, 97, 98, 99, 100, 101, 102, 103, 104, 105, 106, 107, 108, 109, 110, 111, 112, 113, 114, 115, 116, 117, 118, 119, 120, 121, 122, 123, 124, 125, 126, 127, 128, 129, 130, 131, 132, 133, 134, 135, 136, 137, 138, 139, 140, 141, 142, 143, 144, 145, 146, 147, 148, 149, 150, 151, 152, 153, 154, 155, 156, 157, 158, 159, 160, 161, 162, 163, 164, 165, 166, 167, 168, 169, 170, 171, 172, 173, 174, 175, 176, 177, 178, 179, 180, 181, 182, 183, 184, 185, 186, 187, 188, 189, 190, 191, 192, 193, 194, 195, 196, 197, 198, 199, 200, 201, 202, 203, 204, 205, 206, 207, 208, 209, 210, 211, 212, 213, 214, 215, 216, 217, 218, 219, 220, 221, 222, 223, 224, 225, 226, 227, 228, 229, 230, 231, 232, 233, 234, 235, 236, 237, 238, 239, 240, 241, 242, 243, 244, 245, 246, 247, 248, 249, 250, 251, 252, 253, 254, 255], "AcquisitionTime": ["152336.687500", "152337.297500", "152337.907500", "152338.517500", "152339.127500", "152339.737500", "152340.347500", "152340.957500", "152341.567500", "152342.177500", "152342.787500", "152343.397500", "152344.007500", "152344.617500", "152345.227500", "152345.837500", "152346.447500", "152347.057500", "152347.667500", "152348.277500", "152348.887500", "152349.497500", "152350.107500", "152350.717500", "152351.327500", "152351.937500", "152352.547500", "152353.157500", "152353.767500", "152354.377500", "152354.987500", "152355.597500", "152356.207500", "152356.817500", "152357.427500", "152358.037500", "152358.647500", "152359.257500", "152359.867500", "152400.477500", "152401.087500", "152401.697500", "152402.307500", "152402.917500", "152403.527500", "152404.137500", "152404.747500", "152405.357500", "152405.967500", "152406.577500", "152407.187500", "152407.797500", "152408.407500", "152409.017500", "152409.627500", "152410.237500", "152410.847500", "152411.457500", "152412.067500", "152412.677500", "152413.287500", "152413.897500", "152414.507500", "152415.117500", "152415.727500", "152416.337500", "152416.947500", "152417.557500", "152418.167500", "152418.777500", "152419.387500", "152419.997500", "152420.607500", "152421.217500", "152421.827500", "152422.437500", "152423.047500", "152423.657500", "152424.267500", "152424.877500", "152425.487500", "152426.097500", "152426.707500", "152427.317500", "152427.927500", "152428.537500", "152429.147500", "152429.757500", "152430.367500", "152430.977500", "152431.587500", "152432.197500", "152432.807500", "152433.417500", "152434.027500", "152434.637500", "152435.247500", "152435.857500", "152436.467500", "152437.077500", "152437.687500", "152438.297500", "152438.907500", "152439.517500", "152440.127500", "152440.737500", "152441.347500", "152441.957500", "152442.567500", "152443.177500", "152443.787500", "152444.397500", "152445.007500", "152445.617500", "152446.227500", "152446.837500", "152447.447500", "152448.057500", "152448.667500", "152449.277500", "152449.887500", "152450.497500", "152451.107500", "152451.717500", "152452.327500", "152452.937500", "152453.547500", "152454.157500", "152454.767500", "152455.377500", "152455.987500", "152456.597500", "152457.207500", "152457.817500", "152458.427500", "152459.037500", "152459.647500", "152500.257500", "152500.867500", "152501.477500", "152502.087500", "152502.697500", "152503.307500", "152503.917500", "152504.527500", "152505.137500", "152505.747500", "152506.357500", "152506.967500", "152507.577500", "152508.187500", "152508.797500", "152509.407500", "152510.017500", "152510.627500", "152511.237500", "152511.847500", "152512.457500", "152513.067500", "152513.677500", "152514.287500", "152514.897500", "152515.507500", "152516.117500", "152516.727500", "152517.337500", "152517.947500", "152518.557500", "152519.167500", "152519.777500", "152520.387500", "152520.997500", "152521.607500", "152522.217500", "152522.827500", "152523.437500", "152524.047500", "152524.657500", "152525.267500", "152525.877500", "152526.487500", "152527.097500", "152527.707500", "152528.317500", "152528.927500", "152529.537500", "152530.147500", "152530.757500", "152531.367500", "152531.977500", "152532.587500", "152533.197500", "152533.807500", "152534.417500", "152535.027500", "152535.637500", "152536.247500", "152536.857500", "152537.467500", "152538.077500", "152538.687500", "152539.297500", "152539.907500", "152540.517500", "152541.127500", "152541.737500", "152542.347500", "152542.957500", "152543.567500", "152544.177500", "152544.787500", "152545.397500", "152546.007500", "152546.617500", "152547.227500", "152547.837500", "152548.447500", "152549.057500", "152549.667500", "152550.277500", "152550.887500", "152551.497500", "152552.107500", "152552.717500", "152553.327500", "152553.937500", "152554.547500", "152555.157500", "152555.767500", "152556.377500", "152556.987500", "152557.597500", "152558.207500", "152558.817500", "152559.427500", "152600.037500", "152600.647500", "152601.257500", "152601.867500", "152602.477500", "152603.087500", "152603.697500", "152604.307500", "152604.917500", "152605.527500", "152606.137500", "152606.747500", "152607.357500", "152607.967500", "152608.577500", "152609.187500", "152609.797500", "152610.407500", "152611.017500", "152611.627500"], "ContentTime": ["152354.250000", "152354.253000", "152354.255000", "152354.265000", "152354.267000", "152354.270000", "152354.272000", "152354.274000", "152354.277000", "152354.279000", "152354.282000", "152354.288000", "152354.290000", "152354.293000", "152354.295000", "152354.297000", "152354.300000", "152354.302000", "152354.316000", "152354.323000", "152354.325000", "152354.328000", "152354.330000", "152354.332000", "152354.335000", "152354.337000", "152354.340000", "152354.342000", "152414.245000", "152414.248000", "152414.250000", "152414.253000", "152414.255000", "152414.258000", "152414.260000", "152414.263000", "152414.265000", "152414.268000", "152414.270000", "152414.272000", "152414.275000", "152414.277000", "152414.280000", "152414.284000", "152414.287000", "152414.289000", "152414.292000", "152414.294000", "152414.297000", "152414.299000", "152414.302000", "152414.304000", "152414.306000", "152414.309000", "152414.311000", "152414.314000", "152414.316000", "152414.319000", "152414.326000", "152414.328000", "152414.331000", "152434.245000", "152434.248000", "152434.251000", "152434.253000", "152434.256000", "152434.258000", "152434.261000", "152434.263000", "152434.266000", "152434.268000", "152434.271000", "152434.273000", "152434.275000", "152434.278000", "152434.280000", "152434.283000", "152434.285000", "152434.287000", "152434.290000", "152434.292000", "152434.295000", "152434.297000", "152434.300000", "152434.302000", "152434.304000", "152434.307000", "152434.309000", "152434.311000", "152434.314000", "152434.316000", "152434.319000", "152434.321000", "152434.323000", "152454.245000", "152454.248000", "152454.250000", "152454.253000", "152454.255000", "152454.258000", "152454.260000", "152454.263000", "152454.265000", "152454.267000", "152454.270000", "152454.272000", "152454.275000", "152454.277000", "152454.280000", "152454.282000", "152454.285000", "152454.287000", "152454.289000", "152454.292000", "152454.294000", "152454.297000", "152454.299000", "152454.302000", "152454.304000", "152454.306000", "152454.309000", "152454.320000", "152454.323000", "152454.325000", "152454.328000", "152454.330000", "152514.245000", "152514.248000", "152514.250000", "152514.253000", "152514.255000", "152514.258000", "152514.261000", "152514.263000", "152514.265000", "152514.268000", "152514.270000", "152514.273000", "152514.275000", "152514.278000", "152514.280000", "152514.283000", "152514.285000", "152514.288000", "152514.290000", "152514.293000", "152514.295000", "152514.298000", "152514.300000", "152514.303000", "152514.305000", "152514.308000", "152514.310000", "152514.313000", "152514.315000", "152514.317000", "152514.320000", "152514.322000", "152514.325000", "152534.245000", "152534.248000", "152534.250000", "152534.253000", "152534.255000", "152534.258000", "152534.260000", "152534.263000", "152534.265000", "152534.268000", "152534.270000", "152534.273000", "152534.275000", "152534.278000", "152534.280000", "152534.282000", "152534.285000", "152534.287000", "152534.290000", "152534.292000", "152534.295000", "152534.297000", "152534.299000", "152534.302000", "152534.304000", "152534.307000", "152534.309000", "152534.312000", "152534.314000", "152534.316000", "152534.319000", "152534.321000", "152534.324000", "152554.245000", "152554.248000", "152554.250000", "152554.252000", "152554.255000", "152554.257000", "152554.260000", "152554.262000", "152554.265000", "152554.267000", "152554.270000", "152554.272000", "152554.274000", "152554.277000", "152554.279000", "152554.282000", "152554.284000", "152554.287000", "152554.289000", "152554.291000", "152554.294000", "152554.296000", "152554.299000", "152554.301000", "152554.304000", "152554.306000", "152554.308000", "152554.311000", "152554.313000", "152554.316000", "152554.318000", "152554.320000", "152554.323000", "152612.923000", "152612.926000", "152612.928000", "152612.931000", "152612.934000", "152612.936000", "152612.938000", "152612.941000", "152612.943000", "152612.946000", "152612.948000", "152612.951000", "152612.957000", "152612.960000", "152612.963000", "152612.966000", "152612.968000", "152612.971000", "152612.980000", "152612.984000", "152612.987000", "152612.990000", "152612.993000", "152612.996000", "152613.000000", "152613.003000", "152613.006000", "152613.008000", "152613.011000", "152613.013000"], "InstanceCreationTime": ["152354.250000", "152354.253000", "152354.255000", "152354.265000", "152354.267000", "152354.270000", "152354.272000", "152354.274000", "152354.277000", "152354.279000", "152354.282000", "152354.288000", "152354.290000", "152354.293000", "152354.295000", "152354.297000", "152354.300000", "152354.302000", "152354.316000", "152354.323000", "152354.325000", "152354.328000", "152354.330000", "152354.332000", "152354.335000", "152354.337000", "152354.340000", "152354.342000", "152414.245000", "152414.248000", "152414.250000", "152414.253000", "152414.255000", "152414.258000", "152414.260000", "152414.263000", "152414.265000", "152414.268000", "152414.270000", "152414.272000", "152414.275000", "152414.277000", "152414.280000", "152414.284000", "152414.287000", "152414.289000", "152414.292000", "152414.294000", "152414.297000", "152414.299000", "152414.302000", "152414.304000", "152414.306000", "152414.309000", "152414.311000", "152414.314000", "152414.316000", "152414.319000", "152414.326000", "152414.328000", "152414.331000", "152434.245000", "152434.248000", "152434.251000", "152434.253000", "152434.256000", "152434.258000", "152434.261000", "152434.263000", "152434.266000", "152434.268000", "152434.271000", "152434.273000", "152434.275000", "152434.278000", "152434.280000", "152434.283000", "152434.285000", "152434.287000", "152434.290000", "152434.292000", "152434.295000", "152434.297000", "152434.300000", "152434.302000", "152434.304000", "152434.307000", "152434.309000", "152434.311000", "152434.314000", "152434.316000", "152434.319000", "152434.321000", "152434.323000", "152454.245000", "152454.248000", "152454.250000", "152454.253000", "152454.255000", "152454.258000", "152454.260000", "152454.263000", "152454.265000", "152454.267000", "152454.270000", "152454.272000", "152454.275000", "152454.277000", "152454.280000", "152454.282000", "152454.285000", "152454.287000", "152454.289000", "152454.292000", "152454.294000", "152454.297000", "152454.299000", "152454.302000", "152454.304000", "152454.306000", "152454.309000", "152454.320000", "152454.323000", "152454.325000", "152454.328000", "152454.330000", "152514.245000", "152514.248000", "152514.250000", "152514.253000", "152514.255000", "152514.258000", "152514.261000", "152514.263000", "152514.265000", "152514.268000", "152514.270000", "152514.273000", "152514.275000", "152514.278000", "152514.280000", "152514.283000", "152514.285000", "152514.288000", "152514.290000", "152514.293000", "152514.295000", "152514.298000", "152514.300000", "152514.303000", "152514.305000", "152514.308000", "152514.310000", "152514.313000", "152514.315000", "152514.317000", "152514.320000", "152514.322000", "152514.325000", "152534.245000", "152534.248000", "152534.250000", "152534.253000", "152534.255000", "152534.258000", "152534.260000", "152534.263000", "152534.265000", "152534.268000", "152534.270000", "152534.273000", "152534.275000", "152534.278000", "152534.280000", "152534.282000", "152534.285000", "152534.287000", "152534.290000", "152534.292000", "152534.295000", "152534.297000", "152534.299000", "152534.302000", "152534.304000", "152534.307000", "152534.309000", "152534.312000", "152534.314000", "152534.316000", "152534.319000", "152534.321000", "152534.324000", "152554.245000", "152554.248000", "152554.250000", "152554.252000", "152554.255000", "152554.257000", "152554.260000", "152554.262000", "152554.265000", "152554.267000", "152554.270000", "152554.272000", "152554.274000", "152554.277000", "152554.279000", "152554.282000", "152554.284000", "152554.287000", "152554.289000", "152554.291000", "152554.294000", "152554.296000", "152554.299000", "152554.301000", "152554.304000", "152554.306000", "152554.308000", "152554.311000", "152554.313000", "152554.316000", "152554.318000", "152554.320000", "152554.323000", "152612.923000", "152612.926000", "152612.928000", "152612.931000", "152612.934000", "152612.936000", "152612.938000", "152612.941000", "152612.943000", "152612.946000", "152612.948000", "152612.951000", "152612.957000", "152612.960000", "152612.963000", "152612.966000", "152612.968000", "152612.971000", "152612.980000", "152612.984000", "152612.987000", "152612.990000", "152612.993000", "152612.996000", "152613.000000", "152613.003000", "152613.006000", "152613.008000", "152613.011000", "152613.013000"], "InstanceNumber": [1, 2, 3, 4, 5, 6, 7, 8, 9, 10, 11, 12, 13, 14, 15, 16, 17, 18, 19, 20, 21, 22, 23, 24, 25, 26, 27, 28, 29, 30, 31, 32, 33, 34, 35, 36, 37, 38, 39, 40, 41, 42, 43, 44, 45, 46, 47, 48, 49, 50, 51, 52, 53, 54, 55, 56, 57, 58, 59, 60, 61, 62, 63, 64, 65, 66, 67, 68, 69, 70, 71, 72, 73, 74, 75, 76, 77, 78, 79, 80, 81, 82, 83, 84, 85, 86, 87, 88, 89, 90, 91, 92, 93, 94, 95, 96, 97, 98, 99, 100, 101, 102, 103, 104, 105, 106, 107, 108, 109, 110, 111, 112, 113, 114, 115, 116, 117, 118, 119, 120, 121, 122, 123, 124, 125, 126, 127, 128, 129, 130, 131, 132, 133, 134, 135, 136, 137, 138, 139, 140, 141, 142, 143, 144, 145, 146, 147, 148, 149, 150, 151, 152, 153, 154, 155, 156, 157, 158, 159, 160, 161, 162, 163, 164, 165, 166, 167, 168, 169, 170, 171, 172, 173, 174, 175, 176, 177, 178, 179, 180, 181, 182, 183, 184, 185, 186, 187, 188, 189, 190, 191, 192, 193, 194, 195, 196, 197, 198, 199, 200, 201, 202, 203, 204, 205, 206, 207, 208, 209, 210, 211, 212, 213, 214, 215, 216, 217, 218, 219, 220, 221, 222, 223, 224, 225, 226, 227, 228, 229, 230, 231, 232, 233, 234, 235, 236, 237, 238, 239, 240, 241, 242, 243, 244, 245, 246, 247, 248, 249, 250, 251, 252, 253, 254, 255], "LargestImagePixelValue": [479, 468, 463, 461, 459, 456, 459, 455, 457, 460, 462, 464, 461, 467, 463, 464, 466, 463, 462, 458, 457, 457, 461, 460, 461, 458, 458, 460, 458, 460, 461, 462, 461, 464, 463, 463, 464, 465, 467, 465, 461, 462, 462, 459, 461, 461, 459, 460, 466, 469, 466, 468, 465, 465, 465, 466, 463, 464, 466, 465, 466, 463, 463, 463, 461, 463, 462, 462, 465, 462, 465, 466, 461, 467, 464, 465, 466, 464, 466, 465, 464, 464, 465, 464, 463, 464, 461, 464, 462, 464, 461, 465, 464, 464, 467, 464, 461, 465, 462, 465, 464, 464, 463, 464, 466, 463, 464, 464, 463, 465, 463, 460, 461, 460, 460, 461, 460, 462, 461, 465, 462, 459, 462, 459, 459, 459, 459, 460, 462, 461, 464, 463, 463, 465, 462, 470, 465, 464, 466, 466, 467, 467, 468, 475, 470, 470, 477, 470, 495, 493, 476, 472, 463, 465, 468, 466, 468, 472, 468, 466, 466, 465, 463, 461, 461, 461, 465, 458, 466, 458, 464, 463, 462, 465, 466, 467, 473, 472, 473, 474, 476, 475, 475, 473, 471, 470, 466, 467, 461, 463, 461, 461, 462, 464, 466, 466, 466, 470, 470, 469, 467, 467, 463, 470, 471, 469, 469, 469, 469, 470, 474, 477, 476, 474, 475, 474, 475, 471, 475, 473, 472, 478, 471, 477, 475, 474, 476, 476, 477, 479, 475, 474, 474, 476, 477, 480, 481, 481, 477, 480, 476, 474, 475, 475, 476, 479, 476, 474, 476, 476, 476, 475, 482, 477, 478], "WindowCenter": [294.0, 291.0, 289.0, 289.0, 289.0, 288.0, 288.0, 288.0, 288.0, 288.0, 288.0, 288.0, 288.0, 289.0, 288.0, 288.0, 288.0, 287.0, 287.0, 287.0, 287.0, 287.0, 287.0, 287.0, 287.0, 287.0, 287.0, 287.0, 287.0, 288.0, 288.0, 288.0, 288.0, 288.0, 289.0, 288.0, 288.0, 288.0, 288.0, 288.0, 288.0, 288.0, 288.0, 288.0, 287.0, 288.0, 288.0, 288.0, 287.0, 288.0, 288.0, 288.0, 288.0, 288.0, 288.0, 288.0, 288.0, 288.0, 288.0, 288.0, 288.0, 288.0, 288.0, 287.0, 287.0, 287.0, 287.0, 287.0, 287.0, 287.0, 287.0, 287.0, 287.0, 288.0, 288.0, 287.0, 288.0, 288.0, 289.0, 288.0, 289.0, 288.0, 288.0, 288.0, 288.0, 287.0, 287.0, 287.0, 287.0, 287.0, 287.0, 287.0, 287.0, 287.0, 288.0, 287.0, 288.0, 288.0, 288.0, 288.0, 289.0, 288.0, 288.0, 288.0, 288.0, 288.0, 288.0, 288.0, 287.0, 287.0, 287.0, 287.0, 287.0, 287.0, 286.0, 287.0, 287.0, 287.0, 287.0, 287.0, 287.0, 287.0, 287.0, 287.0, 286.0, 286.0, 286.0, 286.0, 287.0, 286.0, 286.0, 287.0, 286.0, 287.0, 286.0, 288.0, 287.0, 287.0, 288.0, 288.0, 288.0, 288.0, 288.0, 289.0, 289.0, 289.0, 289.0, 289.0, 289.0, 290.0, 288.0, 288.0, 287.0, 287.0, 287.0, 287.0, 287.0, 288.0, 287.0, 287.0, 286.0, 286.0, 285.0, 285.0, 286.0, 285.0, 285.0, 285.0, 286.0, 286.0, 286.0, 287.0, 287.0, 288.0, 288.0, 287.0, 288.0, 287.0, 287.0, 287.0, 286.0, 286.0, 286.0, 287.0, 287.0, 286.0, 286.0, 285.0, 286.0, 286.0, 286.0, 286.0, 286.0, 287.0, 287.0, 287.0, 288.0, 288.0, 288.0, 288.0, 288.0, 288.0, 287.0, 288.0, 287.0, 287.0, 287.0, 287.0, 287.0, 288.0, 288.0, 288.0, 288.0, 288.0, 288.0, 288.0, 287.0, 288.0, 288.0, 288.0, 288.0, 288.0, 288.0, 288.0, 288.0, 288.0, 289.0, 289.0, 289.0, 289.0, 289.0, 288.0, 289.0, 288.0, 289.0, 289.0, 289.0, 288.0, 289.0, 288.0, 289.0, 289.0, 289.0, 288.0, 289.0, 288.0, 287.0, 287.0, 286.0, 286.0, 286.0, 286.0, 286.0, 286.0, 287.0], "WindowWidth": [640.0, 635.0, 632.0, 630.0, 630.0, 629.0, 628.0, 628.0, 629.0, 629.0, 629.0, 629.0, 629.0, 630.0, 629.0, 629.0, 629.0, 628.0, 628.0, 628.0, 627.0, 628.0, 628.0, 628.0, 628.0, 627.0, 627.0, 628.0, 628.0, 628.0, 629.0, 629.0, 629.0, 629.0, 630.0, 629.0, 629.0, 629.0, 629.0, 629.0, 629.0, 629.0, 629.0, 629.0, 628.0, 629.0, 628.0, 629.0, 628.0, 629.0, 629.0, 629.0, 630.0, 629.0, 629.0, 629.0, 629.0, 629.0, 629.0, 629.0, 629.0, 629.0, 629.0, 628.0, 627.0, 627.0, 627.0, 627.0, 627.0, 627.0, 628.0, 628.0, 628.0, 629.0, 629.0, 628.0, 629.0, 629.0, 630.0, 629.0, 631.0, 629.0, 629.0, 629.0, 629.0, 627.0, 628.0, 628.0, 627.0, 627.0, 627.0, 628.0, 627.0, 628.0, 629.0, 628.0, 629.0, 629.0, 629.0, 629.0, 630.0, 629.0, 629.0, 629.0, 630.0, 629.0, 629.0, 629.0, 628.0, 628.0, 628.0, 628.0, 627.0, 627.0, 626.0, 628.0, 628.0, 627.0, 628.0, 628.0, 628.0, 628.0, 627.0, 627.0, 626.0, 626.0, 626.0, 626.0, 627.0, 626.0, 626.0, 627.0, 627.0, 628.0, 626.0, 630.0, 627.0, 628.0, 629.0, 629.0, 630.0, 630.0, 630.0, 630.0, 630.0, 631.0, 630.0, 631.0, 631.0, 633.0, 628.0, 628.0, 628.0, 628.0, 628.0, 628.0, 627.0, 629.0, 627.0, 627.0, 625.0, 625.0, 623.0, 623.0, 626.0, 624.0, 624.0, 623.0, 625.0, 624.0, 626.0, 627.0, 627.0, 629.0, 629.0, 628.0, 629.0, 628.0, 627.0, 628.0, 626.0, 626.0, 626.0, 627.0, 627.0, 626.0, 625.0, 624.0, 625.0, 626.0, 626.0, 626.0, 626.0, 627.0, 628.0, 628.0, 629.0, 629.0, 629.0, 629.0, 629.0, 629.0, 628.0, 629.0, 627.0, 627.0, 628.0, 628.0, 628.0, 629.0, 629.0, 629.0, 629.0, 629.0, 629.0, 629.0, 628.0, 629.0, 629.0, 629.0, 629.0, 629.0, 629.0, 629.0, 629.0, 629.0, 630.0, 630.0, 630.0, 630.0, 630.0, 630.0, 630.0, 629.0, 630.0, 631.0, 631.0, 629.0, 630.0, 629.0, 630.0, 631.0, 631.0, 630.0, 630.0, 629.0, 628.0, 628.0, 626.0, 626.0, 626.0, 626.0, 626.0, 626.0, 627.0]}, "slices": {}}, "EventTimestamp": "15-26-13"}