{"AcquisitionMatrixPE": 64, "AcquisitionNumber": 1, "AcquisitionTime": "14:41:29.712500", "BandwidthPerPixelPhaseEncode": 28.935, "BaseResolution": 64, "BodyPartExamined": "BRAIN", "CoilString": "HC2_4_6_7", "ConsistencyInfo": "N4_VE11E_LATEST_20181129", "ConversionSoftware": "dcm2niix", "ConversionSoftwareVersion": "v1.0.20190902", "DerivedVendorReportedEchoSpacing": 0.000540003, "DeviceSerialNumber": "166182", "DwellTime": 3.4e-06, "EchoTime": 0.032, "EchoTrainLength": 64, "EffectiveEchoSpacing": 0.000540003, "FlipAngle": 40, "ImageOrientationPatientDICOM": [0.984261, -0.171775, 0.041514, 0.173552, 0.983849, -0.0438248], "ImageType": ["ORIGINAL", "PRIMARY", "M", "ND", "NORM", "MOSAIC"], "ImagingFrequency": 123.256, "InPlanePhaseEncodingDirectionDICOM": "COL", "InstitutionAddress": "PEARSE_STREET_._City_District_IE_D2", "InstitutionName": "TCIN", "InstitutionalDepartmentName": "MRI", "MRAcquisitionType": "2D", "MagneticFieldStrength": 3, "Manufacturer": "Siemens", "ManufacturersModelName": "Prisma", "Modality": "MR", "MultibandAccelerationFactor": 4, "PartialFourier": 1, "PatientPosition": "HFS", "PercentPhaseFOV": 100, "PhaseEncodingDirection": "j-", "PhaseEncodingSteps": 64, "PhaseResolution": 1, "PixelBandwidth": 2300, "ProcedureStepDescription": "Rhodri_Head_BOLD", "ProtocolName": "cmrr_mbep2d_Pictures_AP_RDS", "PulseSequenceDetails": "%SiemensSeq%_ep2d_bold", "ReceiveCoilActiveElements": "HC2,4,6,7", "ReceiveCoilName": "HeadNeck_64", "ReconMatrixPE": 64, "RefLinesPE": 12, "RepetitionTime": 0.61, "SAR": 0.178872, "ScanOptions": "FS", "ScanningSequence": "EP", "SequenceName": "_epfid2d1_64", "SequenceVariant": "SK", "SeriesDescription": "cmrr_mbep2d_Pictures_AP_RDS", "SeriesNumber": 8, "ShimSetting": [-3610, -7412, 3883, 548, -98, 268, 60, 39], "SliceThickness": 3, "SliceTiming": [0.2625, 0, 0.3275, 0.0675, 0.395, 0.1325, 0.46, 0.1975, 0.525, 0.2625, 0, 0.3275, 0.0675, 0.395, 0.1325, 0.46, 0.1975, 0.525, 0.2625, 0, 0.3275, 0.0675, 0.395, 0.1325, 0.46, 0.1975, 0.525, 0.2625, 0, 0.3275, 0.0675, 0.395, 0.1325, 0.46, 0.1975, 0.525], "SoftwareVersions": "syngo_MR_E11", "SpacingBetweenSlices": 3.3, "StationName": "AWP166182", "TaskName": "pictures", "TotalReadoutTime": 0.0340202, "TxRefAmp": 247.51, "dcmmeta_affine": [[-2.9527831077575684, 0.5206552743911743, 0.1099410280585289, 78.9683609008789], [0.515325665473938, 2.951547384262085, -0.1661216765642166, -115.5622787475586], [0.12454191595315933, 0.13147450983524323, 3.2939817905426025, -110.75883483886719], [0.0, 0.0, 0.0, 1.0]], "dcmmeta_reorient_transform": [[0.0, -1.0, 0.0, 63.0], [1.0, 0.0, 0.0, 0.0], [0.0, 0.0, 1.0, 0.0], [0.0, 0.0, 0.0, 1.0]], "dcmmeta_shape": [64, 64, 36, 432], "dcmmeta_slice_dim": 2, "dcmmeta_version": 0.6, "global": {"const": {"AcquisitionMatrix": [64, 0, 0, 64], "AngioFlag": "N", "BitsAllocated": 16, "BitsStored": 12, "BodyPartExamined": "BRAIN", "Columns": 384, "EchoNumbers": 1, "EchoTime": 32.0, "EchoTrainLength": 64, "FlipAngle": 40.0, "HighBit": 11, "ImageOrientationPatient": [0.98426107559279, -0.1717752173385, 0.04151397091645, 0.17355176428319, 0.98384915961298, -0.0438248359157], "ImagePositionPatient": [-667.51981007168, -460.18070769348, -101.36672618429], "ImageType": ["ORIGINAL", "PRIMARY", "M", "ND", "NORM", "MOSAIC"], "ImagedNucleus": "1H", "ImagingFrequency": 123.256496, "InPlanePhaseEncodingDirection": "COL", "MRAcquisitionType": "2D", "MagneticFieldStrength": 3.0, "Manufacturer": "SIEMENS", "ManufacturerModelName": "Prisma", "Modality": "MR", "NumberOfAverages": 1.0, "NumberOfPhaseEncodingSteps": 64, "PercentPhaseFieldOfView": 100.0, "PercentSampling": 100.0, "PerformedProcedureStepStartTime": "141742.036000", "PhotometricInterpretation": "MONOCHROME2", "PixelBandwidth": 2300.0, "PixelRepresentation": 0, "PixelSpacing": [3.0, 3.0], "ProtocolName": "cmrr_mbep2d_Pictures_AP_RDS", "RepetitionTime": 610.0, "Rows": 384, "SAR": 0.17887190679348, "SamplesPerPixel": 1, "ScanOptions": "FS", "ScanningSequence": "EP", "SequenceName": "*epfid2d1_64", "SequenceVariant": "SK", "SeriesDescription": "cmrr_mbep2d_Pictures_AP_RDS", "SeriesNumber": 8, "SeriesTime": "144144.349000", "SliceLocation": -102.10858567139, "SliceThickness": 3.0, "SmallestImagePixelValue": 0, "SoftwareVersions": "syngo MR E11", "SpacingBetweenSlices": 3.2999999279298, "SpecificCharacterSet": "ISO_IR 100", "StudyID": "1", "StudyTime": "141741.951000", "TransmitCoilName": "Body", "VariableFlipAngleFlag": "N", "WindowCenterWidthExplanation": "Algo1"}, "slices": {}}, "time": {"samples": {"AcquisitionNumber": [1, 2, 3, 4, 5, 6, 7, 8, 9, 10, 11, 12, 13, 14, 15, 16, 17, 18, 19, 20, 21, 22, 23, 24, 25, 26, 27, 28, 29, 30, 31, 32, 33, 34, 35, 36, 37, 38, 39, 40, 41, 42, 43, 44, 45, 46, 47, 48, 49, 50, 51, 52, 53, 54, 55, 56, 57, 58, 59, 60, 61, 62, 63, 64, 65, 66, 67, 68, 69, 70, 71, 72, 73, 74, 75, 76, 77, 78, 79, 80, 81, 82, 83, 84, 85, 86, 87, 88, 89, 90, 91, 92, 93, 94, 95, 96, 97, 98, 99, 100, 101, 102, 103, 104, 105, 106, 107, 108, 109, 110, 111, 112, 113, 114, 115, 116, 117, 118, 119, 120, 121, 122, 123, 124, 125, 126, 127, 128, 129, 130, 131, 132, 133, 134, 135, 136, 137, 138, 139, 140, 141, 142, 143, 144, 145, 146, 147, 148, 149, 150, 151, 152, 153, 154, 155, 156, 157, 158, 159, 160, 161, 162, 163, 164, 165, 166, 167, 168, 169, 170, 171, 172, 173, 174, 175, 176, 177, 178, 179, 180, 181, 182, 183, 184, 185, 186, 187, 188, 189, 190, 191, 192, 193, 194, 195, 196, 197, 198, 199, 200, 201, 202, 203, 204, 205, 206, 207, 208, 209, 210, 211, 212, 213, 214, 215, 216, 217, 218, 219, 220, 221, 222, 223, 224, 225, 226, 227, 228, 229, 230, 231, 232, 233, 234, 235, 236, 237, 238, 239, 240, 241, 242, 243, 244, 245, 246, 247, 248, 249, 250, 251, 252, 253, 254, 255, 256, 257, 258, 259, 260, 261, 262, 263, 264, 265, 266, 267, 268, 269, 270, 271, 272, 273, 274, 275, 276, 277, 278, 279, 280, 281, 282, 283, 284, 285, 286, 287, 288, 289, 290, 291, 292, 293, 294, 295, 296, 297, 298, 299, 300, 301, 302, 303, 304, 305, 306, 307, 308, 309, 310, 311, 312, 313, 314, 315, 316, 317, 318, 319, 320, 321, 322, 323, 324, 325, 326, 327, 328, 329, 330, 331, 332, 333, 334, 335, 336, 337, 338, 339, 340, 341, 342, 343, 344, 345, 346, 347, 348, 349, 350, 351, 352, 353, 354, 355, 356, 357, 358, 359, 360, 361, 362, 363, 364, 365, 366, 367, 368, 369, 370, 371, 372, 373, 374, 375, 376, 377, 378, 379, 380, 381, 382, 383, 384, 385, 386, 387, 388, 389, 390, 391, 392, 393, 394, 395, 396, 397, 398, 399, 400, 401, 402, 403, 404, 405, 406, 407, 408, 409, 410, 411, 412, 413, 414, 415, 416, 417, 418, 419, 420, 421, 422, 423, 424, 425, 426, 427, 428, 429, 430, 431, 432], "AcquisitionTime": ["144129.712500", "144130.322500", "144130.932500", "144131.542500", "144132.152500", "144132.762500", "144133.372500", "144133.982500", "144134.592500", "144135.202500", "144135.812500", "144136.422500", "144137.032500", "144137.642500", "144138.252500", "144138.862500", "144139.472500", "144140.082500", "144140.692500", "144141.302500", "144141.912500", "144142.522500", "144143.132500", "144143.742500", "144144.352500", "144144.962500", "144145.572500", "144146.182500", "144146.792500", "144147.402500", "144148.012500", "144148.622500", "144149.232500", "144149.842500", "144150.452500", "144151.062500", "144151.672500", "144152.282500", "144152.892500", "144153.502500", "144154.112500", "144154.722500", "144155.332500", "144155.942500", "144156.552500", "144157.162500", "144157.772500", "144158.382500", "144158.992500", "144159.602500", "144200.212500", "144200.822500", "144201.432500", "144202.042500", "144202.652500", "144203.262500", "144203.872500", "144204.482500", "144205.092500", "144205.702500", "144206.312500", "144206.922500", "144207.532500", "144208.142500", "144208.752500", "144209.362500", "144209.972500", "144210.582500", "144211.192500", "144211.802500", "144212.412500", "144213.022500", "144213.632500", "144214.242500", "144214.852500", "144215.462500", "144216.072500", "144216.682500", "144217.292500", "144217.902500", "144218.512500", "144219.122500", "144219.732500", "144220.342500", "144220.952500", "144221.562500", "144222.172500", "144222.782500", "144223.392500", "144224.002500", "144224.612500", "144225.222500", "144225.832500", "144226.442500", "144227.052500", "144227.662500", "144228.272500", "144228.882500", "144229.492500", "144230.102500", "144230.712500", "144231.322500", "144231.932500", "144232.542500", "144233.152500", "144233.762500", "144234.372500", "144234.982500", "144235.592500", "144236.202500", "144236.812500", "144237.422500", "144238.032500", "144238.642500", "144239.252500", "144239.862500", "144240.472500", "144241.082500", "144241.692500", "144242.302500", "144242.912500", "144243.522500", "144244.132500", "144244.742500", "144245.352500", "144245.962500", "144246.572500", "144247.182500", "144247.792500", "144248.402500", "144249.012500", "144249.622500", "144250.232500", "144250.842500", "144251.452500", "144252.062500", "144252.672500", "144253.282500", "144253.892500", "144254.502500", "144255.112500", "144255.722500", "144256.332500", "144256.942500", "144257.552500", "144258.162500", "144258.772500", "144259.382500", "144259.992500", "144300.602500", "144301.212500", "144301.822500", "144302.432500", "144303.042500", "144303.652500", "144304.262500", "144304.872500", "144305.482500", "144306.092500", "144306.702500", "144307.312500", "144307.922500", "144308.532500", "144309.142500", "144309.752500", "144310.362500", "144310.972500", "144311.582500", "144312.192500", "144312.802500", "144313.412500", "144314.022500", "144314.632500", "144315.242500", "144315.852500", "144316.462500", "144317.072500", "144317.682500", "144318.292500", "144318.902500", "144319.512500", "144320.122500", "144320.732500", "144321.342500", "144321.952500", "144322.562500", "144323.172500", "144323.782500", "144324.392500", "144325.002500", "144325.612500", "144326.222500", "144326.832500", "144327.442500", "144328.052500", "144328.662500", "144329.272500", "144329.882500", "144330.492500", "144331.102500", "144331.712500", "144332.322500", "144332.932500", "144333.542500", "144334.152500", "144334.762500", "144335.372500", "144335.982500", "144336.592500", "144337.202500", "144337.812500", "144338.422500", "144339.032500", "144339.642500", "144340.252500", "144340.862500", "144341.472500", "144342.082500", "144342.692500", "144343.302500", "144343.912500", "144344.522500", "144345.132500", "144345.742500", "144346.352500", "144346.962500", "144347.572500", "144348.182500", "144348.792500", "144349.402500", "144350.012500", "144350.622500", "144351.232500", "144351.842500", "144352.452500", "144353.062500", "144353.672500", "144354.282500", "144354.892500", "144355.502500", "144356.112500", "144356.722500", "144357.332500", "144357.942500", "144358.552500", "144359.162500", "144359.772500", "144400.382500", "144400.992500", "144401.602500", "144402.212500", "144402.822500", "144403.432500", "144404.042500", "144404.652500", "144405.262500", "144405.872500", "144406.482500", "144407.092500", "144407.702500", "144408.312500", "144408.922500", "144409.532500", "144410.142500", "144410.752500", "144411.362500", "144411.972500", "144412.582500", "144413.192500", "144413.802500", "144414.412500", "144415.022500", "144415.632500", "144416.242500", "144416.852500", "144417.462500", "144418.072500", "144418.682500", "144419.292500", "144419.902500", "144420.512500", "144421.122500", "144421.732500", "144422.342500", "144422.952500", "144423.562500", "144424.172500", "144424.782500", "144425.392500", "144426.002500", "144426.612500", "144427.222500", "144427.832500", "144428.442500", "144429.052500", "144429.662500", "144430.272500", "144430.882500", "144431.492500", "144432.102500", "144432.712500", "144433.322500", "144433.932500", "144434.542500", "144435.152500", "144435.762500", "144436.372500", "144436.982500", "144437.592500", "144438.202500", "144438.812500", "144439.422500", "144440.032500", "144440.642500", "144441.252500", "144441.862500", "144442.472500", "144443.082500", "144443.692500", "144444.302500", "144444.912500", "144445.522500", "144446.132500", "144446.742500", "144447.352500", "144447.962500", "144448.572500", "144449.182500", "144449.792500", "144450.402500", "144451.012500", "144451.622500", "144452.232500", "144452.842500", "144453.452500", "144454.062500", "144454.672500", "144455.282500", "144455.892500", "144456.502500", "144457.112500", "144457.722500", "144458.332500", "144458.942500", "144459.552500", "144500.162500", "144500.772500", "144501.382500", "144501.992500", "144502.602500", "144503.212500", "144503.822500", "144504.432500", "144505.042500", "144505.652500", "144506.262500", "144506.872500", "144507.482500", "144508.092500", "144508.702500", "144509.312500", "144509.922500", "144510.532500", "144511.142500", "144511.752500", "144512.362500", "144512.972500", "144513.582500", "144514.192500", "144514.802500", "144515.412500", "144516.022500", "144516.632500", "144517.242500", "144517.852500", "144518.462500", "144519.072500", "144519.682500", "144520.292500", "144520.902500", "144521.512500", "144522.122500", "144522.732500", "144523.342500", "144523.952500", "144524.562500", "144525.172500", "144525.782500", "144526.392500", "144527.002500", "144527.612500", "144528.222500", "144528.832500", "144529.442500", "144530.052500", "144530.662500", "144531.272500", "144531.882500", "144532.492500", "144533.102500", "144533.712500", "144534.322500", "144534.932500", "144535.542500", "144536.152500", "144536.762500", "144537.372500", "144537.982500", "144538.592500", "144539.202500", "144539.812500", "144540.422500", "144541.032500", "144541.642500", "144542.252500", "144542.862500", "144543.472500", "144544.082500", "144544.692500", "144545.302500", "144545.912500", "144546.522500", "144547.132500", "144547.742500", "144548.352500", "144548.962500", "144549.572500", "144550.182500", "144550.792500", "144551.402500", "144552.012500", "144552.622500"], "ContentTime": ["144144.352000", "144144.355000", "144144.357000", "144144.360000", "144144.362000", "144144.365000", "144144.367000", "144144.369000", "144144.372000", "144144.374000", "144144.376000", "144144.379000", "144144.381000", "144144.384000", "144144.386000", "144144.388000", "144144.391000", "144144.393000", "144144.396000", "144144.398000", "144144.406000", "144144.408000", "144144.415000", "144144.417000", "144204.347000", "144204.350000", "144204.352000", "144204.355000", "144204.357000", "144204.380000", "144204.383000", "144204.385000", "144204.387000", "144204.390000", "144204.392000", "144204.394000", "144204.397000", "144204.399000", "144204.402000", "144204.404000", "144204.407000", "144204.409000", "144204.412000", "144204.414000", "144204.417000", "144204.419000", "144204.422000", "144204.424000", "144204.426000", "144204.429000", "144204.431000", "144204.433000", "144204.436000", "144204.438000", "144204.441000", "144204.443000", "144224.347000", "144224.350000", "144224.352000", "144224.354000", "144224.357000", "144224.359000", "144224.362000", "144224.364000", "144224.371000", "144224.374000", "144224.376000", "144224.378000", "144224.381000", "144224.383000", "144224.386000", "144224.388000", "144224.391000", "144224.393000", "144224.395000", "144224.398000", "144224.400000", "144224.402000", "144224.405000", "144224.407000", "144224.410000", "144224.413000", "144224.415000", "144224.418000", "144224.420000", "144224.422000", "144224.425000", "144224.427000", "144224.430000", "144244.346000", "144244.349000", "144244.352000", "144244.354000", "144244.356000", "144244.359000", "144244.361000", "144244.363000", "144244.366000", "144244.368000", "144244.370000", "144244.373000", "144244.375000", "144244.377000", "144244.380000", "144244.382000", "144244.384000", "144244.387000", "144244.389000", "144244.391000", "144244.394000", "144244.396000", "144244.399000", "144244.401000", "144244.403000", "144244.406000", "144244.408000", "144244.411000", "144244.413000", "144244.415000", "144244.418000", "144244.420000", "144244.422000", "144304.346000", "144304.349000", "144304.352000", "144304.354000", "144304.357000", "144304.359000", "144304.362000", "144304.364000", "144304.367000", "144304.369000", "144304.371000", "144304.374000", "144304.376000", "144304.378000", "144304.381000", "144304.383000", "144304.386000", "144304.388000", "144304.391000", "144304.393000", "144304.395000", "144304.398000", "144304.400000", "144304.403000", "144304.405000", "144304.407000", "144304.410000", "144304.412000", "144304.414000", "144304.417000", "144304.419000", "144304.422000", "144304.424000", "144324.346000", "144324.349000", "144324.351000", "144324.353000", "144324.356000", "144324.358000", "144324.361000", "144324.363000", "144324.365000", "144324.368000", "144324.370000", "144324.372000", "144324.375000", "144324.377000", "144324.379000", "144324.382000", "144324.384000", "144324.386000", "144324.389000", "144324.391000", "144324.394000", "144324.396000", "144324.398000", "144324.401000", "144324.403000", "144324.405000", "144324.408000", "144324.410000", "144324.412000", "144324.415000", "144324.417000", "144324.419000", "144344.347000", "144344.350000", "144344.352000", "144344.355000", "144344.357000", "144344.359000", "144344.362000", "144344.364000", "144344.367000", "144344.369000", "144344.371000", "144344.374000", "144344.376000", "144344.379000", "144344.381000", "144344.384000", "144344.386000", "144344.388000", "144344.391000", "144344.393000", "144344.396000", "144344.398000", "144344.400000", "144344.403000", "144344.405000", "144344.408000", "144344.410000", "144344.412000", "144344.415000", "144344.417000", "144344.420000", "144344.422000", "144344.424000", "144404.347000", "144404.350000", "144404.352000", "144404.354000", "144404.357000", "144404.359000", "144404.361000", "144404.364000", "144404.366000", "144404.368000", "144404.371000", "144404.373000", "144404.376000", "144404.378000", "144404.380000", "144404.383000", "144404.386000", "144404.388000", "144404.390000", "144404.393000", "144404.395000", "144404.398000", "144404.400000", "144404.402000", "144404.405000", "144404.407000", "144404.410000", "144404.412000", "144404.414000", "144404.417000", "144404.419000", "144404.422000", "144404.424000", "144424.347000", "144424.350000", "144424.353000", "144424.355000", "144424.357000", "144424.360000", "144424.362000", "144424.364000", "144424.367000", "144424.369000", "144424.371000", "144424.374000", "144424.376000", "144424.378000", "144424.381000", "144424.383000", "144424.385000", "144424.388000", "144424.390000", "144424.392000", "144424.395000", "144424.397000", "144424.400000", "144424.402000", "144424.405000", "144424.407000", "144424.410000", "144424.412000", "144424.415000", "144424.417000", "144424.420000", "144424.422000", "144424.424000", "144444.348000", "144444.350000", "144444.352000", "144444.355000", "144444.357000", "144444.360000", "144444.362000", "144444.365000", "144444.367000", "144444.369000", "144444.372000", "144444.374000", "144444.377000", "144444.379000", "144444.381000", "144444.384000", "144444.386000", "144444.389000", "144444.391000", "144444.393000", "144444.396000", "144444.398000", "144444.401000", "144444.403000", "144444.406000", "144444.408000", "144444.410000", "144444.413000", "144444.415000", "144444.418000", "144444.420000", "144444.422000", "144444.425000", "144504.346000", "144504.349000", "144504.351000", "144504.354000", "144504.356000", "144504.358000", "144504.361000", "144504.363000", "144504.366000", "144504.368000", "144504.371000", "144504.373000", "144504.376000", "144504.379000", "144504.381000", "144504.384000", "144504.386000", "144504.388000", "144504.391000", "144504.393000", "144504.395000", "144504.398000", "144504.400000", "144504.403000", "144504.405000", "144504.407000", "144504.410000", "144504.412000", "144504.415000", "144504.417000", "144504.419000", "144504.422000", "144524.346000", "144524.349000", "144524.351000", "144524.354000", "144524.356000", "144524.358000", "144524.362000", "144524.364000", "144524.367000", "144524.369000", "144524.371000", "144524.374000", "144524.376000", "144524.378000", "144524.381000", "144524.383000", "144524.385000", "144524.388000", "144524.390000", "144524.392000", "144524.395000", "144524.397000", "144524.400000", "144524.402000", "144524.404000", "144524.407000", "144524.409000", "144524.411000", "144524.414000", "144524.416000", "144524.419000", "144524.421000", "144524.424000", "144544.346000", "144544.349000", "144544.352000", "144544.354000", "144544.356000", "144544.359000", "144544.361000", "144544.364000", "144544.366000", "144544.369000", "144544.371000", "144544.374000", "144544.376000", "144544.378000", "144544.381000", "144544.383000", "144544.386000", "144544.388000", "144544.390000", "144544.393000", "144544.395000", "144544.398000", "144544.400000", "144544.403000", "144544.405000", "144544.407000", "144544.410000", "144544.412000", "144544.439000", "144544.442000", "144544.444000", "144544.447000", "144544.449000", "144553.496000", "144553.498000", "144553.501000", "144553.503000", "144553.506000", "144553.508000", "144553.510000", "144553.513000", "144553.515000", "144553.518000", "144553.520000", "144553.523000", "144553.527000", "144553.530000", "144553.533000"], "InstanceCreationTime": ["144144.352000", "144144.355000", "144144.357000", "144144.360000", "144144.362000", "144144.365000", "144144.367000", "144144.369000", "144144.372000", "144144.374000", "144144.376000", "144144.379000", "144144.381000", "144144.384000", "144144.386000", "144144.388000", "144144.391000", "144144.393000", "144144.396000", "144144.398000", "144144.406000", "144144.408000", "144144.415000", "144144.417000", "144204.347000", "144204.350000", "144204.352000", "144204.355000", "144204.357000", "144204.380000", "144204.383000", "144204.385000", "144204.387000", "144204.390000", "144204.392000", "144204.394000", "144204.397000", "144204.399000", "144204.402000", "144204.404000", "144204.407000", "144204.409000", "144204.412000", "144204.414000", "144204.417000", "144204.419000", "144204.422000", "144204.424000", "144204.426000", "144204.429000", "144204.431000", "144204.433000", "144204.436000", "144204.438000", "144204.441000", "144204.443000", "144224.347000", "144224.350000", "144224.352000", "144224.354000", "144224.357000", "144224.359000", "144224.362000", "144224.364000", "144224.371000", "144224.374000", "144224.376000", "144224.378000", "144224.381000", "144224.383000", "144224.386000", "144224.388000", "144224.391000", "144224.393000", "144224.395000", "144224.398000", "144224.400000", "144224.402000", "144224.405000", "144224.407000", "144224.410000", "144224.413000", "144224.415000", "144224.418000", "144224.420000", "144224.422000", "144224.425000", "144224.427000", "144224.430000", "144244.346000", "144244.349000", "144244.352000", "144244.354000", "144244.356000", "144244.359000", "144244.361000", "144244.363000", "144244.366000", "144244.368000", "144244.370000", "144244.373000", "144244.375000", "144244.377000", "144244.380000", "144244.382000", "144244.384000", "144244.387000", "144244.389000", "144244.391000", "144244.394000", "144244.396000", "144244.399000", "144244.401000", "144244.403000", "144244.406000", "144244.408000", "144244.411000", "144244.413000", "144244.415000", "144244.418000", "144244.420000", "144244.422000", "144304.346000", "144304.349000", "144304.352000", "144304.354000", "144304.357000", "144304.359000", "144304.362000", "144304.364000", "144304.367000", "144304.369000", "144304.371000", "144304.374000", "144304.376000", "144304.378000", "144304.381000", "144304.383000", "144304.386000", "144304.388000", "144304.391000", "144304.393000", "144304.395000", "144304.398000", "144304.400000", "144304.403000", "144304.405000", "144304.407000", "144304.410000", "144304.412000", "144304.414000", "144304.417000", "144304.419000", "144304.422000", "144304.424000", "144324.346000", "144324.349000", "144324.351000", "144324.353000", "144324.356000", "144324.358000", "144324.361000", "144324.363000", "144324.365000", "144324.368000", "144324.370000", "144324.372000", "144324.375000", "144324.377000", "144324.379000", "144324.382000", "144324.384000", "144324.386000", "144324.389000", "144324.391000", "144324.394000", "144324.396000", "144324.398000", "144324.401000", "144324.403000", "144324.405000", "144324.408000", "144324.410000", "144324.412000", "144324.415000", "144324.417000", "144324.419000", "144344.347000", "144344.350000", "144344.352000", "144344.355000", "144344.357000", "144344.359000", "144344.362000", "144344.364000", "144344.367000", "144344.369000", "144344.371000", "144344.374000", "144344.376000", "144344.379000", "144344.381000", "144344.384000", "144344.386000", "144344.388000", "144344.391000", "144344.393000", "144344.396000", "144344.398000", "144344.400000", "144344.403000", "144344.405000", "144344.408000", "144344.410000", "144344.412000", "144344.415000", "144344.417000", "144344.420000", "144344.422000", "144344.424000", "144404.347000", "144404.350000", "144404.352000", "144404.354000", "144404.357000", "144404.359000", "144404.361000", "144404.364000", "144404.366000", "144404.368000", "144404.371000", "144404.373000", "144404.376000", "144404.378000", "144404.380000", "144404.383000", "144404.386000", "144404.388000", "144404.390000", "144404.393000", "144404.395000", "144404.398000", "144404.400000", "144404.402000", "144404.405000", "144404.407000", "144404.410000", "144404.412000", "144404.414000", "144404.417000", "144404.419000", "144404.422000", "144404.424000", "144424.347000", "144424.350000", "144424.353000", "144424.355000", "144424.357000", "144424.360000", "144424.362000", "144424.364000", "144424.367000", "144424.369000", "144424.371000", "144424.374000", "144424.376000", "144424.378000", "144424.381000", "144424.383000", "144424.385000", "144424.388000", "144424.390000", "144424.392000", "144424.395000", "144424.397000", "144424.400000", "144424.402000", "144424.405000", "144424.407000", "144424.410000", "144424.412000", "144424.415000", "144424.417000", "144424.420000", "144424.422000", "144424.424000", "144444.348000", "144444.350000", "144444.352000", "144444.355000", "144444.357000", "144444.360000", "144444.362000", "144444.365000", "144444.367000", "144444.369000", "144444.372000", "144444.374000", "144444.377000", "144444.379000", "144444.381000", "144444.384000", "144444.386000", "144444.389000", "144444.391000", "144444.393000", "144444.396000", "144444.398000", "144444.401000", "144444.403000", "144444.406000", "144444.408000", "144444.410000", "144444.413000", "144444.415000", "144444.418000", "144444.420000", "144444.422000", "144444.425000", "144504.346000", "144504.349000", "144504.351000", "144504.354000", "144504.356000", "144504.358000", "144504.361000", "144504.363000", "144504.366000", "144504.368000", "144504.371000", "144504.373000", "144504.376000", "144504.379000", "144504.381000", "144504.384000", "144504.386000", "144504.388000", "144504.391000", "144504.393000", "144504.395000", "144504.398000", "144504.400000", "144504.403000", "144504.405000", "144504.407000", "144504.410000", "144504.412000", "144504.415000", "144504.417000", "144504.419000", "144504.422000", "144524.346000", "144524.349000", "144524.351000", "144524.354000", "144524.356000", "144524.358000", "144524.362000", "144524.364000", "144524.367000", "144524.369000", "144524.371000", "144524.374000", "144524.376000", "144524.378000", "144524.381000", "144524.383000", "144524.385000", "144524.388000", "144524.390000", "144524.392000", "144524.395000", "144524.397000", "144524.400000", "144524.402000", "144524.404000", "144524.407000", "144524.409000", "144524.411000", "144524.414000", "144524.416000", "144524.419000", "144524.421000", "144524.424000", "144544.346000", "144544.349000", "144544.352000", "144544.354000", "144544.356000", "144544.359000", "144544.361000", "144544.364000", "144544.366000", "144544.369000", "144544.371000", "144544.374000", "144544.376000", "144544.378000", "144544.381000", "144544.383000", "144544.386000", "144544.388000", "144544.390000", "144544.393000", "144544.395000", "144544.398000", "144544.400000", "144544.403000", "144544.405000", "144544.407000", "144544.410000", "144544.412000", "144544.439000", "144544.442000", "144544.444000", "144544.447000", "144544.449000", "144553.496000", "144553.498000", "144553.501000", "144553.503000", "144553.506000", "144553.508000", "144553.510000", "144553.513000", "144553.515000", "144553.518000", "144553.520000", "144553.523000", "144553.527000", "144553.530000", "144553.533000"], "InstanceNumber": [1, 2, 3, 4, 5, 6, 7, 8, 9, 10, 11, 12, 13, 14, 15, 16, 17, 18, 19, 20, 21, 22, 23, 24, 25, 26, 27, 28, 29, 30, 31, 32, 33, 34, 35, 36, 37, 38, 39, 40, 41, 42, 43, 44, 45, 46, 47, 48, 49, 50, 51, 52, 53, 54, 55, 56, 57, 58, 59, 60, 61, 62, 63, 64, 65, 66, 67, 68, 69, 70, 71, 72, 73, 74, 75, 76, 77, 78, 79, 80, 81, 82, 83, 84, 85, 86, 87, 88, 89, 90, 91, 92, 93, 94, 95, 96, 97, 98, 99, 100, 101, 102, 103, 104, 105, 106, 107, 108, 109, 110, 111, 112, 113, 114, 115, 116, 117, 118, 119, 120, 121, 122, 123, 124, 125, 126, 127, 128, 129, 130, 131, 132, 133, 134, 135, 136, 137, 138, 139, 140, 141, 142, 143, 144, 145, 146, 147, 148, 149, 150, 151, 152, 153, 154, 155, 156, 157, 158, 159, 160, 161, 162, 163, 164, 165, 166, 167, 168, 169, 170, 171, 172, 173, 174, 175, 176, 177, 178, 179, 180, 181, 182, 183, 184, 185, 186, 187, 188, 189, 190, 191, 192, 193, 194, 195, 196, 197, 198, 199, 200, 201, 202, 203, 204, 205, 206, 207, 208, 209, 210, 211, 212, 213, 214, 215, 216, 217, 218, 219, 220, 221, 222, 223, 224, 225, 226, 227, 228, 229, 230, 231, 232, 233, 234, 235, 236, 237, 238, 239, 240, 241, 242, 243, 244, 245, 246, 247, 248, 249, 250, 251, 252, 253, 254, 255, 256, 257, 258, 259, 260, 261, 262, 263, 264, 265, 266, 267, 268, 269, 270, 271, 272, 273, 274, 275, 276, 277, 278, 279, 280,