{"AcquisitionMatrixPE": 64, "AcquisitionNumber": 1, "AcquisitionTime": "15:20:10.712500", "BandwidthPerPixelPhaseEncode": 28.935, "BaseResolution": 64, "BodyPartExamined": "BRAIN", "CoilCombinationMethod": "Sum of Squares", "ConsistencyInfo": "N4_VE11E_LATEST_20181129", "ConversionSoftware": "dcm2niix", "ConversionSoftwareVersion": "v1.0.20230411", "DerivedVendorReportedEchoSpacing": 0.000540003, "DeviceSerialNumber": "166182", "DwellTime": 3.4e-06, "EchoTime": 0.032, "EchoTrainLength": 64, "EffectiveEchoSpacing": 0.000540003, "FlipAngle": 40, "HeudiconvVersion": "0.13.1", "ImageOrientationPatientDICOM": [0.998562, 0.0519029, -0.0134108, -0.0523324, 0.998052, -0.03396], "ImageOrientationText": "Tra>Cor(-2.0)>Sag(-0.7)", "ImageType": ["ORIGINAL", "PRIMARY", "M", "ND", "NORM", "MOSAIC"], "ImagingFrequency": 123.256546, "InPlanePhaseEncodingDirectionDICOM": "COL", "InstitutionAddress": "PEARSE STREET .,City,District,IE,D2", "InstitutionName": "MRI DEPT", "InstitutionalDepartmentName": "MRI", "MRAcquisitionType": "2D", "MagneticFieldStrength": 3, "Manufacturer": "Siemens", "ManufacturersModelName": "Prisma", "Modality": "MR", "MultibandAccelerationFactor": 4, "NonlinearGradientCorrection": false, "PartialFourier": 1, "PatientPosition": "HFS", "PercentPhaseFOV": 100, "PercentSampling": 100, "PhaseEncodingDirection": "j-", "PhaseEncodingSteps": 64, "PhaseResolution": 1, "PixelBandwidth": 2300, "ProcedureStepDescription": "Rhodri^Head BOLD", "ProtocolName": "cmrr_mbep2d_Pictures_AP_RDS", "PulseSequenceDetails": "%SiemensSeq%\\ep2d_bold", "ReceiveCoilActiveElements": "HC2,4,6,7;SC", "ReceiveCoilName": "SpecialPurpose_4", "ReconMatrixPE": 64, "RefLinesPE": 12, "RepetitionTime": 0.61, "SAR": 0.214214, "ScanOptions": "FS", "ScanningSequence": "EP", "SequenceName": "*epfid2d1_64", "SequenceVariant": "SK", "SeriesDescription": "cmrr_mbep2d_Pictures_AP_RDS", "SeriesNumber": 9, "ShimSetting": [-3679, -7399, 3988, 677, -92, 328, 147, 13], "SliceThickness": 3, "SliceTiming": [0.2625, 0, 0.3275, 0.065, 0.3925, 0.13, 0.4575, 0.195, 0.525, 0.2625, 0, 0.3275, 0.065, 0.3925, 0.13, 0.4575, 0.195, 0.525, 0.2625, 0, 0.3275, 0.065, 0.3925, 0.13, 0.4575, 0.195, 0.525, 0.2625, 0, 0.3275, 0.065, 0.3925, 0.13, 0.4575, 0.195, 0.525], "SoftwareVersions": "syngo MR E11", "SpacingBetweenSlices": 3.3, "StationName": "AWP166182", "TaskName": "pictures", "TotalReadoutTime": 0.0340202, "TxRefAmp": 221.038, "dcmmeta_affine": [[-2.9956862926483154, -0.15699735283851624, -0.03835281729698181, 98.14265441894531], [-0.15570861101150513, 2.9941563606262207, -0.11422276496887207, -98.20610046386719], [-0.040232427418231964, 0.10187990963459015, 3.297799587249756, -78.78345489501953], [0.0, 0.0, 0.0, 1.0]], "dcmmeta_reorient_transform": [[0.0, -1.0, 0.0, 63.0], [1.0, 0.0, 0.0, 0.0], [0.0, 0.0, 1.0, 0.0], [0.0, 0.0, 0.0, 1.0]], "dcmmeta_shape": [64, 64, 36, 510], "dcmmeta_slice_dim": 2, "dcmmeta_version": 0.6, "global": {"const": {"AcquisitionMatrix": [64, 0, 0, 64], "AngioFlag": "N", "BitsAllocated": 16, "BitsStored": 12, "BodyPartExamined": "BRAIN", "Columns": 384, "EchoNumbers": 1, "EchoTime": 32.0, "EchoTrainLength": 64, "FlipAngle": 40.0, "HighBit": 11, "ImageOrientationPatient": [0.99856208734686, 0.05190287001977, -0.0134108089687, -0.0523324496439, 0.99805212045569, -0.0339599700851], "ImagePositionPatient": [-542.44204723779, -594.40414520021, -49.627044180044], "ImageType": ["ORIGINAL", "PRIMARY", "M", "ND", "NORM", "MOSAIC"], "ImagedNucleus": "1H", "ImagingFrequency": 123.256546, "InPlanePhaseEncodingDirection": "COL", "MRAcquisitionType": "2D", "MagneticFieldStrength": 3.0, "Manufacturer": "SIEMENS", "ManufacturerModelName": "Prisma", "Modality": "MR", "NumberOfAverages": 1.0, "NumberOfPhaseEncodingSteps": 64, "PercentPhaseFieldOfView": 100.0, "PercentSampling": 100.0, "PerformedProcedureStepStartTime": "144055.396000", "PhotometricInterpretation": "MONOCHROME2", "PixelBandwidth": 2300.0, "PixelRepresentation": 0, "PixelSpacing": [3.0, 3.0], "ProtocolName": "cmrr_mbep2d_Pictures_AP_RDS", "RepetitionTime": 610.0, "Rows": 384, "SAR": 0.21421411993611, "SamplesPerPixel": 1, "ScanOptions": "FS", "ScanningSequence": "EP", "SequenceName": "*epfid2d1_64", "SequenceVariant": "SK", "SeriesDescription": "cmrr_mbep2d_Pictures_AP_RDS", "SeriesNumber": 9, "SeriesTime": "152033.011000", "SliceLocation": -76.472337378545, "SliceThickness": 3.0, "SmallestImagePixelValue": 0, "SoftwareVersions": "syngo MR E11", "SpacingBetweenSlices": 3.2999999700344, "SpecificCharacterSet": "ISO_IR 100", "StudyID": "2", "StudyTime": "144055.335000", "TransmitCoilName": "Body", "VariableFlipAngleFlag": "N", "WindowCenterWidthExplanation": "Algo1"}, "slices": {}}, "time": {"samples": {"AcquisitionNumber": [1, 2, 3, 4, 5, 6, 7, 8, 9, 10, 11, 12, 13, 14, 15, 16, 17, 18, 19, 20, 21, 22, 23, 24, 25, 26, 27, 28, 29, 30, 31, 32, 33, 34, 35, 36, 37, 38, 39, 40, 41, 42, 43, 44, 45, 46, 47, 48, 49, 50, 51, 52, 53, 54, 55, 56, 57, 58, 59, 60, 61, 62, 63, 64, 65, 66, 67, 68, 69, 70, 71, 72, 73, 74, 75, 76, 77, 78, 79, 80, 81, 82, 83, 84, 85, 86, 87, 88, 89, 90, 91, 92, 93, 94, 95, 96, 97, 98, 99, 100, 101, 102, 103, 104, 105, 106, 107, 108, 109, 110, 111, 112, 113, 114, 115, 116, 117, 118, 119, 120, 121, 122, 123, 124, 125, 126, 127, 128, 129, 130, 131, 132, 133, 134, 135, 136, 137, 138, 139, 140, 141, 142, 143, 144, 145, 146, 147, 148, 149, 150, 151, 152, 153, 154, 155, 156, 157, 158, 159, 160, 161, 162, 163, 164, 165, 166, 167, 168, 169, 170, 171, 172, 173, 174, 175, 176, 177, 178, 179, 180, 181, 182, 183, 184, 185, 186, 187, 188, 189, 190, 191, 192, 193, 194, 195, 196, 197, 198, 199, 200, 201, 202, 203, 204, 205, 206, 207, 208, 209, 210, 211, 212, 213, 214, 215, 216, 217, 218, 219, 220, 221, 222, 223, 224, 225, 226, 227, 228, 229, 230, 231, 232, 233, 234, 235, 236, 237, 238, 239, 240, 241, 242, 243, 244, 245, 246, 247, 248, 249, 250, 251, 252, 253, 254, 255, 256, 257, 258, 259, 260, 261, 262, 263, 264, 265, 266, 267, 268, 269, 270, 271, 272, 273, 274, 275, 276, 277, 278, 279, 280, 281, 282, 283, 284, 285, 286, 287, 288, 289, 290, 291, 292, 293, 294, 295, 296, 297, 298, 299, 300, 301, 302, 303, 304, 305, 306, 307, 308, 309, 310, 311, 312, 313, 314, 315, 316, 317, 318, 319, 320, 321, 322, 323, 324, 325, 326, 327, 328, 329, 330, 331, 332, 333, 334, 335, 336, 337, 338, 339, 340, 341, 342, 343, 344, 345, 346, 347, 348, 349, 350, 351, 352, 353, 354, 355, 356, 357, 358, 359, 360, 361, 362, 363, 364, 365, 366, 367, 368, 369, 370, 371, 372, 373, 374, 375, 376, 377, 378, 379, 380, 381, 382, 383, 384, 385, 386, 387, 388, 389, 390, 391, 392, 393, 394, 395, 396, 397, 398, 399, 400, 401, 402, 403, 404, 405, 406, 407, 408, 409, 410, 411, 412, 413, 414, 415, 416, 417, 418, 419, 420, 421, 422, 423, 424, 425, 426, 427, 428, 429, 430, 431, 432, 433, 434, 435, 436, 437, 438, 439, 440, 441, 442, 443, 444, 445, 446, 447, 448, 449, 450, 451, 452, 453, 454, 455, 456, 457, 458, 459, 460, 461, 462, 463, 464, 465, 466, 467, 468, 469, 470, 471, 472, 473, 474, 475, 476, 477, 478, 479, 480, 481, 482, 483, 484, 485, 486, 487, 488, 489, 490, 491, 492, 493, 494, 495, 496, 497, 498, 499, 500, 501, 502, 503, 504, 505, 506, 507, 508, 509, 510], "AcquisitionTime": ["152010.712500", "152011.322500", "152011.932500", "152012.542500", "152013.152500", "152013.762500", "152014.372500", "152014.982500", "152015.592500", "152016.202500", "152016.812500", "152017.422500", "152018.032500", "152018.642500", "152019.252500", "152019.862500", "152020.472500", "152021.082500", "152021.692500", "152022.302500", "152022.912500", "152023.522500", "152024.132500", "152024.742500", "152025.352500", "152025.962500", "152026.572500", "152027.182500", "152027.792500", "152028.402500", "152029.012500", "152029.622500", "152030.232500", "152030.842500", "152031.452500", "152032.062500", "152032.672500", "152033.282500", "152033.892500", "152034.502500", "152035.112500", "152035.722500", "152036.332500", "152036.942500", "152037.552500", "152038.162500", "152038.772500", "152039.382500", "152039.992500", "152040.602500", "152041.212500", "152041.822500", "152042.432500", "152043.042500", "152043.652500", "152044.262500", "152044.872500", "152045.482500", "152046.092500", "152046.702500", "152047.312500", "152047.922500", "152048.532500", "152049.142500", "152049.752500", "152050.362500", "152050.972500", "152051.582500", "152052.192500", "152052.802500", "152053.412500", "152054.022500", "152054.632500", "152055.242500", "152055.852500", "152056.462500", "152057.072500", "152057.682500", "152058.292500", "152058.902500", "152059.512500", "152100.122500", "152100.732500", "152101.342500", "152101.952500", "152102.562500", "152103.172500", "152103.782500", "152104.392500", "152105.002500", "152105.612500", "152106.222500", "152106.832500", "152107.442500", "152108.052500", "152108.662500", "152109.272500", "152109.882500", "152110.492500", "152111.102500", "152111.712500", "152112.322500", "152112.932500", "152113.542500", "152114.152500", "152114.762500", "152115.372500", "152115.982500", "152116.592500", "152117.202500", "152117.812500", "152118.422500", "152119.032500", "152119.642500", "152120.252500", "152120.862500", "152121.472500", "152122.082500", "152122.692500", "152123.302500", "152123.912500", "152124.522500", "152125.132500", "152125.742500", "152126.352500", "152126.962500", "152127.572500", "152128.182500", "152128.792500", "152129.402500", "152130.012500", "152130.622500", "152131.232500", "152131.842500", "152132.452500", "152133.062500", "152133.672500", "152134.282500", "152134.892500", "152135.502500", "152136.112500", "152136.722500", "152137.332500", "152137.942500", "152138.552500", "152139.162500", "152139.772500", "152140.382500", "152140.992500", "152141.602500", "152142.212500", "152142.822500", "152143.432500", "152144.042500", "152144.652500", "152145.262500", "152145.872500", "152146.482500", "152147.092500", "152147.702500", "152148.312500", "152148.922500", "152149.532500", "152150.142500", "152150.752500", "152151.362500", "152151.972500", "152152.582500", "152153.192500", "152153.802500", "152154.412500", "152155.022500", "152155.632500", "152156.242500", "152156.852500", "152157.462500", "152158.072500", "152158.682500", "152159.292500", "152159.902500", "152200.512500", "152201.122500", "152201.732500", "152202.342500", "152202.952500", "152203.562500", "152204.172500", "152204.782500", "152205.392500", "152206.002500", "152206.612500", "152207.222500", "152207.832500", "152208.442500", "152209.052500", "152209.662500", "152210.272500", "152210.882500", "152211.492500", "152212.102500", "152212.712500", "152213.322500", "152213.932500", "152214.542500", "152215.152500", "152215.762500", "152216.372500", "152216.982500", "152217.592500", "152218.202500", "152218.812500", "152219.422500", "152220.032500", "152220.642500", "152221.252500", "152221.862500", "152222.472500", "152223.082500", "152223.692500", "152224.302500", "152224.912500", "152225.522500", "152226.132500", "152226.742500", "152227.352500", "152227.962500", "152228.572500", "152229.182500", "152229.792500", "152230.402500", "152231.012500", "152231.622500", "152232.232500", "152232.842500", "152233.452500", "152234.062500", "152234.672500", "152235.282500", "152235.892500", "152236.502500", "152237.112500", "152237.722500", "152238.332500", "152238.942500", "152239.552500", "152240.162500", "152240.772500", "152241.382500", "152241.992500", "152242.602500", "152243.212500", "152243.822500", "152244.432500", "152245.042500", "152245.652500", "152246.262500", "152246.872500", "152247.482500", "152248.092500", "152248.702500", "152249.312500", "152249.922500", "152250.532500", "152251.142500", "152251.752500", "152252.362500", "152252.972500", "152253.582500", "152254.192500", "152254.802500", "152255.412500", "152256.022500", "152256.632500", "152257.242500", "152257.852500", "152258.462500", "152259.072500", "152259.682500", "152300.292500", "152300.902500", "152301.512500", "152302.122500", "152302.732500", "152303.342500", "152303.952500", "152304.562500", "152305.172500", "152305.782500", "152306.392500", "152307.002500", "152307.612500", "152308.222500", "152308.832500", "152309.442500", "152310.052500", "152310.662500", "152311.272500", "152311.882500", "152312.492500", "152313.102500", "152313.712500", "152314.322500", "152314.932500", "152315.542500", "152316.152500", "152316.762500", "152317.372500", "152317.982500", "152318.592500", "152319.202500", "152319.812500", "152320.422500", "152321.032500", "152321.642500", "152322.252500", "152322.862500", "152323.472500", "152324.082500", "152324.692500", "152325.302500", "152325.912500", "152326.522500", "152327.132500", "152327.742500", "152328.352500", "152328.962500", "152329.572500", "152330.182500", "152330.792500", "152331.402500", "152332.012500", "152332.622500", "152333.232500", "152333.842500", "152334.452500", "152335.062500", "152335.672500", "152336.282500", "152336.892500", "152337.502500", "152338.112500", "152338.722500", "152339.332500", "152339.942500", "152340.552500", "152341.162500", "152341.772500", "152342.382500", "152342.992500", "152343.602500", "152344.212500", "152344.822500", "152345.432500", "152346.042500", "152346.652500", "152347.262500", "152347.872500", "152348.482500", "152349.092500", "152349.702500", "152350.312500", "152350.922500", "152351.532500", "152352.142500", "152352.752500", "152353.362500", "152353.972500", "152354.582500", "152355.192500", "152355.802500", "152356.412500", "152357.022500", "152357.632500", "152358.242500", "152358.852500", "152359.462500", "152400.072500", "152400.682500", "152401.292500", "152401.902500", "152402.512500", "152403.122500", "152403.732500", "152404.342500", "152404.952500", "152405.562500", "152406.172500", "152406.782500", "152407.392500", "152408.002500", "152408.612500", "152409.222500", "152409.832500", "152410.442500", "152411.052500", "152411.662500", "152412.272500", "152412.882500", "152413.492500", "152414.102500", "152414.712500", "152415.322500", "152415.932500", "152416.542500", "152417.152500", "152417.762500", "152418.372500", "152418.982500", "152419.592500", "152420.202500", "152420.812500", "152421.422500", "152422.032500", "152422.642500", "152423.252500", "152423.862500", "152424.472500", "152425.082500", "152425.692500", "152426.302500", "152426.912500", "152427.522500", "152428.132500", "152428.742500", "152429.352500", "152429.962500", "152430.572500", "152431.182500", "152431.792500", "152432.402500", "152433.012500", "152433.622500", "152434.232500", "152434.842500", "152435.452500", "152436.062500", "152436.672500", "152437.282500", "152437.892500", "152438.502500", "152439.112500", "152439.722500", "152440.332500", "152440.942500", "152441.552500", "152442.162500", "152442.772500", "152443.382500", "152443.992500", "152444.602500", "152445.212500", "152445.822500", "152446.432500", "152447.042500", "152447.652500", "152448.262500", "152448.872500", "152449.482500", "152450.092500", "152450.702500", "152451.312500", "152451.922500", "152452.532500", "152453.142500", "152453.752500", "152454.362500", "152454.972500", "152455.582500", "152456.192500", "152456.802500", "152457.412500", "152458.022500", "152458.632500", "152459.242500", "152459.852500", "152500.462500", "152501.072500", "152501.682500", "152502.292500", "152502.902500", "152503.512500", "152504.122500", "152504.732500", "152505.342500", "152505.952500", "152506.562500", "152507.172500", "152507.782500", "152508.392500", "152509.002500", "152509.612500", "152510.222500", "152510.832500", "152511.442500", "152512.052500", "152512.662500", "152513.272500", "152513.882500", "152514.492500", "152515.102500", "152515.712500", "152516.322500", "152516.932500", "152517.542500", "152518.152500", "152518.762500", "152519.372500", "152519.982500", "152520.592500", "152521.202500"], "ContentTime": ["152033.014000", "152033.018000", "152033.020000", "152033.022000", "152033.025000", "152033.027000", "152033.030000", "152033.032000", "152033.035000", "152033.037000", "152033.040000", "152033.042000", "152033.045000", "152033.047000", "152033.050000", "152033.052000", "152033.061000", "152033.063000", "152033.066000", "152033.068000", "152033.071000", "152033.073000", "152033.075000", "152033.078000", "152033.080000", "152033.083000", "152033.085000", "152033.087000", "152033.096000", "152033.099000", "152033.101000", "152033.103000", "152033.107000", "152033.110000", "152033.112000", "152033.115000", "152053.009000", "152053.012000", "152053.015000", "152053.017000", "152053.023000", "152053.025000", "152053.028000", "152053.030000", "152053.033000", "152053.035000", "152053.037000", "152053.040000", "152053.042000", "152053.044000", "152053.047000", "152053.049000", "152053.052000", "152053.054000", "152053.056000", "152053.059000", "152053.061000", "152053.063000", "152053.066000", "152053.068000", "152053.071000", "152053.073000", "152053.076000", "152053.078000", "152053.080000", "152053.083000", "152053.089000", "152053.091000", "152053.093000", "152113.009000", "152113.012000", "152113.014000", "152113.017000", "152113.019000", "152113.022000", "152113.024000", "152113.026000", "152113.029000", "152113.031000", "152113.034000", "152113.036000", "152113.038000", "152113.041000", "152113.043000", "152113.046000", "152113.055000", "152113.057000", "152113.060000", "152113.062000", "152113.065000", "152113.067000", "152113.069000", "152113.072000", "152113.074000", "152113.077000", "152113.079000", "152113.082000", "152113.084000", "152113.086000", "152113.089000", "152113.091000", "152113.093000", "152133.009000", "152133.012000", "152133.014000", "152133.017000", "152133.019000", "152133.022000", "152133.024000", "152133.026000", "152133.029000", "152133.031000", "152133.034000", "152133.036000", "152133.038000", "152133.041000", "152133.043000", "152133.046000", "152133.048000", "152133.051000", "152133.053000", "152133.056000", "152133.058000", "152133.061000", "152133.063000", "152133.065000", "152133.068000", "152133.070000", "152133.072000", "152133.075000", "152133.077000", "152133.082000", "152133.084000", "152133.086000", "152153.009000", "152153.012000", "152153.015000", "152153.018000", "152153.021000", "152153.023000", "152153.026000", "152153.028000", "152153.031000", "152153.033000", "152153.035000", "152153.038000", "152153.040000", "152153.043000", "152153.045000", "152153.047000", "152153.050000", "152153.052000", "152153.055000", "152153.057000", "152153.060000", "152153.062000", "152153.064000", "152153.067000", "152153.069000", "152153.072000", "152153.074000", "152153.077000", "152153.079000", "152153.081000", "152153.084000", "152153.086000", "152153.089000", "152213.009000", "152213.012000", "152213.015000", "152213.017000", "152213.019000", "152213.022000", "152213.024000", "152213.027000", "152213.029000", "152213.032000", "152213.034000", "152213.036000", "152213.039000", "152213.041000", "152213.044000", "152213.046000", "152213.048000", "152213.051000", "152213.053000", "152213.056000", "152213.058000", "152213.061000", "152213.063000", "152213.065000", "152213.068000", "152213.070000", "152213.073000", "152213.075000", "152213.077000", "152213.080000", "152213.082000", "152213.085000", "152213.087000", "152233.009000", "152233.012000", "152233.014000", "152233.017000", "152233.019000", "152233.022000", "152233.024000", "152233.027000", "152233.029000", "152233.031000", "152233.034000", "152233.036000", "152233.039000", "152233.041000", "152233.043000", "152233.046000", "152233.048000", "152233.051000", "152233.053000", "152233.055000", "152233.058000", "152233.060000", "152233.063000", "152233.065000", "152233.067000", "152233.070000", "152233.072000", "152233.075000", "152233.077000", "152233.079000", "152233.082000", "152233.084000", "152233.087000", "152253.010000", "152253.013000", "152253.016000", "152253.018000", "152253.021000", "152253.023000", "152253.025000", "152253.028000", "152253.030000", "152253.033000", "152253.035000", "152253.038000", "152253.040000", "152253.043000", "152253.045000", "152253.047000", "152253.050000", "152253.077000", "152253.080000", "152253.082000", "152253.085000", "152253.087000", "152253.089000", "152253.092000", "152253.094000", "152253.097000", "152253.099000", "152253.102000", "152253.104000", "152253.106000", "152253.109000", "152253.111000", "152253.114000", "152313.009000", "152313.012000", "152313.014000", "152313.017000", "152313.019000", "152313.021000", "152313.024000", "152313.026000", "152313.029000", "152313.031000", "152313.034000", "152313.036000", "152313.038000", "152313.041000", "152313.043000", "152313.046000", "152313.048000", "152313.051000", "152313.053000", "152313.055000", "152313.058000", "152313.060000", "152313.063000", "152313.065000", "152313.068000", "152313.070000", "152313.072000", "152313.075000", "152313.077000", "152313.080000", "152313.082000", "152313.085000", "152333.009000", "152333.012000", "152333.014000", "152333.017000", "152333.019000", "152333.021000", "152333.024000", "152333.026000", "152333.028000", "152333.031000", "152333.033000", "152333.035000", "152333.038000", "152333.040000", "152333.043000", "152333.045000", "152333.047000", "152333.050000", "152333.052000", "152333.056000", "152333.058000", "152333.061000", "152333.063000", "152333.066000", "152333.068000", "152333.070000", "152333.073000", "152333.075000", "152333.078000", "152333.081000", "152333.083000", "152333.085000", "152333.088000", "152353.009000", "152353.012000", "152353.014000", "152353.017000", "152353.019000", "152353.022000", "152353.024000", "152353.027000", "152353.029000", "152353.032000", "152353.034000", "152353.036000", "152353.039000", "152353.041000", "152353.044000", "152353.046000", "152353.048000", "152353.051000", "152353.053000", "152353.056000", "152353.058000", "152353.061000", "152353.063000", "152353.065000", "152353.068000", "152353.070000", "152353.073000", "152353.075000", "152353.077000", "152353.080000", "152353.082000", "152353.085000", "152353.087000", "152413.009000", "152413.012000", "152413.015000", "152413.017000", "152413.020000", "152413.022000", "152413.025000", "152413.027000", "152413.030000", "152413.032000", "152413.035000", "152413.037000", "152413.039000", "152413.042000", "152413.044000", "152413.047000", "152413.049000", "152413.052000", "152413.054000", "152413.056000", "152413.059000", "152413.061000", "152413.064000", "152413.066000", "152413.068000", "152413.071000", "152413.073000", "152413.076000", "152413.078000", "152413.080000", "152413.083000", "152413.085000", "152413.088000", "152433.009000", "152433.012000", "152433.014000", "152433.017000", "152433.019000", "152433.021000", "152433.024000", "152433.026000", "152433.029000", "152433.031000", "152433.034000", "152433.036000", "152433.038000", "152433.041000", "152433.043000", "152433.046000", "152433.048000", "152433.051000", "152433.053000", "152433.055000", "152433.058000", "152433.060000", "152433.063000", "152433.065000", "152433.068000", "152433.070000", "152433.072000", "152433.075000", "152433.078000", "152433.080000", "152433.083000", "152433.085000", "152433.087000", "152453.009000", "152453.012000", "152453.015000", "152453.017000", "152453.020000", "152453.022000", "152453.024000", "152453.027000", "152453.029000", "152453.032000", "152453.034000", "152453.037000", "152453.039000", "152453.042000", "152453.044000", "152453.047000", "152453.049000", "152453.051000", "152453.054000", "152453.056000", "152453.059000", "152453.061000", "152453.063000", "152453.071000", "152453.073000", "152453.075000", "152453.078000", "152453.080000", "152453.083000", "152453.085000", "152453.088000", "152453.090000", "152513.010000", "152513.013000", "152513.016000", "152513.018000", "152513.021000", "152513.023000", "152513.026000", "152513.028000", "152513.030000", "152513.033000", "152513.035000", "152513.038000", "152513.040000", "152513.043000", "152513.045000", "152513.047000", "152513.050000", "152513.052000", "152513.055000", "152513.057000", "152513.060000", "152513.062000", "152513.064000", "152513.067000", "152513.069000", "152513.071000", "152513.074000", "152513.076000", "152513.079000", "152513.081000", "152513.083000", "152513.086000", "152513.088000", "152521.759000", "152521.761000", "152521.764000", "152521.767000", "152521.769000", "152521.772000", "152521.774000", "152521.776000", "152521.779000", "152521.781000", "152521.784000", "152521.786000", "152521.788000", "152521.791000", "152521.793000"], "InstanceCreationTime": ["152033.014000", "152033.018000", "152033.020000", "152033.022000", "152033.025000", "152033.027000", "152033.030000", "152033.032000", "152033.035000", "152033.037000", "152033.040000", "152033.042000", "152033.045000", "152033.047000", "152033.050000", "152033.052000", "152033.061000", "152033.063000", "152033.066000", "152033.068000", "152033.071000", "152033.073000", "152033.075000", "152033.078000", "152033.080000", "152033.083000", "152033.085000", "152033.087000", "152033.096000", "152033.099000", "152033.101000", "152033.103000", "152033.107000", "152033.110000", "152033.112000", "152033.115000", "152053.009000", "152053.012000", "152053.015000", "152053.017000", "152053.023000", "152053.025000", "152053.028000", "152053.030000", "152053.033000", "152053.035000", "152053.037000", "152053.040000", "152053.042000", "152053.044000", "152053.047000", "152053.049000", "152053.052000", "152053.054000", "152053.056000", "152053.059000", "152053.061000", "152053.063000", "152053.066000", "152053.068000", "152053.071000", "152053.073000", "152053.076000", "152053.078000", "152053.080000", "152053.083000", "152053.089000", "152053.091000", "152053.093000", "152113.009000", "152113.012000", "152113.014000", "152113.017000", "152113.019000", "152113.022000", "152113.024000", "152113.026000", "152113.029000", "152113.031000", "152113.034000", "152113.036000", "152113.038000", "152113.041000", "152113.043000", "152113.046000", "152113.055000", "152113.057000", "152113.060000", "152113.062000", "152113.065000", "152113.067000", "152113.069000", "152113.072000", "152113.074000", "152113.077000", "152113.079000", "152113.082000", "152113.084000", "152113.086000", "152113.089000", "152113.091000", "152113.093000", "152133.009000", "152133.012000", "152133.014000", "152133.017000", "152133.019000", "152133.022000", "152133.024000", "152133.026000", "152133.029000", "152133.031000", "152133.034000", "152133.036000", "152133.038000", "152133.041000", "152133.043000", "152133.046000", "152133.048000", "152133.051000", "152133.053000", "152133.056000", "152133.058000", "152133.061000", "152133.063000", "152133.065000", "152133.068000", "152133.070000", "152133.072000", "152133.075000", "152133.077000", "152133.082000", "152133.084000", "152133.086000", "152153.009000", "152153.012000", "152153.015000", "152153.018000", "152153.021000", "152153.023000", "152153.026000", "152153.028000", "152153.031000", "152153.033000", "152153.035000", "152153.038000", "152153.040000", "152153.043000", "152153.045000", "152153.047000", "152153.050000", "152153.052000", "152153.055000", "152153.057000", "152153.060000", "152153.062000", "152153.064000", "152153.067000", "152153.069000", "152153.072000", "152153.074000", "152153.077000", "152153.079000", "152153.081000", "152153.084000", "152153.086000", "152153.089000", "152213.009000", "152213.012000", "152213.015000", "152213.017000", "152213.019000", "152213.022000", "152213.024000", "152213.027000", "152213.029000", "152213.032000", "152213.034000", "152213.036000", "152213.039000", "152213.041000", "152213.044000", "152213.046000", "152213.048000", "152213.051000", "152213.053000", "152213.056000", "152213.058000", "152213.061000", "152213.063000", "152213.065000", "152213.068000", "152213.070000", "152213.073000", "152213.075000", "152213.077000", "152213.080000", "152213.082000", "152213.085000", "152213.087000", "152233.009000", "152233.012000", "152233.014000", "152233.017000", "152233.019000", "152233.022000", "152233.024000", "152233.027000", "152233.029000", "152233.031000", "152233.034000", "152233.036000", "152233.039000", "152233.041000", "152233.043000", "152233.046000", "152233.048000", "152233.051000", "152233.053000", "152233.055000", "152233.058000", "152233.060000", "152233.063000", "152233.065000", "152233.067000", "152233.070000", "152233.072000", "152233.075000", "152233.077000", "152233.079000", "152233.082000", "152233.084000", "152233.087000", "152253.010000", "152253.013000", "152253.016000", "152253.018000", "152253.021000", "152253.023000", "152253.025000", "152253.028000", "152253.030000", "152253.033000", "152253.035000", "152253.038000", "152253.040000", "152253.043000", "152253.045000", "152253.047000", "152253.050000", "152253.077000", "152253.080000", "152253.082000", "152253.085000", "152253.087000", "152253.089000", "152253.092000", "152253.094000", "152253.097000", "152253.099000", "152253.102000", "152253.104000", "152253.106000", "152253.109000", "152253.111000", "152253.114000", "152313.009000", "152313.012000", "152313.014000", "152313.017000", "152313.019000", "152313.021000", "152313.024000", "152313.026000", "152313.029000", "152313.031000", "152313.034000", "152313.036000", "152313.038000", "152313.041000", "152313.043000", "152313.046000", "152313.048000", "152313.051000", "152313.053000", "152313.055000", "152313.058000", "152313.060000", "152313.063000", "152313.065000", "152313.068000", "152313.070000", "152313.072000", "152313.075000", "152313.077000", "152313.080000", "152313.082000", "152313.085000", "152333.009000", "152333.012000", "152333.014000", "152333.017000", "152333.019000", "152333.021000", "152333.024000", "152333.026000", "152333.028000", "152333.031000", "152333.033000", "152333.035000", "152333.038000", "152333.040000", "152333.043000", "152333.045000", "152333.047000", "152333.050000", "152333.052000", "152333.056000", "152333.058000", "1523