{"AcquisitionMatrixPE": 64, "AcquisitionNumber": 1, "AcquisitionTime": "15:09:36.950000", "BandwidthPerPixelPhaseEncode": 28.935, "BaseResolution": 64, "BodyPartExamined": "BRAIN", "CoilCombinationMethod": "Sum of Squares", "ConsistencyInfo": "N4_VE11E_LATEST_20181129", "ConversionSoftware": "dcm2niix", "ConversionSoftwareVersion": "v1.0.20230411", "DerivedVendorReportedEchoSpacing": 0.000540003, "DeviceSerialNumber": "166182", "DwellTime": 3.4e-06, "EchoTime": 0.032, "EchoTrainLength": 64, "EffectiveEchoSpacing": 0.000540003, "FlipAngle": 40, "HeudiconvVersion": "0.13.1", "ImageOrientationPatientDICOM": [0.999299, 0.0361969, -0.00954345, -0.0324517, 0.964755, 0.26114], "ImageOrientationText": "Tra>Cor(15.1)>Sag(-1.1)", "ImageType": ["ORIGINAL", "PRIMARY", "M", "ND", "NORM", "MOSAIC"], "ImagingFrequency": 123.25655, "InPlanePhaseEncodingDirectionDICOM": "COL", "InstitutionAddress": "PEARSE STREET .,City,District,IE,D2", "InstitutionName": "MRI DEPT", "InstitutionalDepartmentName": "MRI", "MRAcquisitionType": "2D", "MagneticFieldStrength": 3, "Manufacturer": "Siemens", "ManufacturersModelName": "Prisma", "Modality": "MR", "MultibandAccelerationFactor": 4, "NonlinearGradientCorrection": false, "PartialFourier": 1, "PatientPosition": "HFS", "PercentPhaseFOV": 100, "PercentSampling": 100, "PhaseEncodingDirection": "j-", "PhaseEncodingSteps": 64, "PhaseResolution": 1, "PixelBandwidth": 2300, "ProcedureStepDescription": "Rhodri^Head BOLD", "ProtocolName": "cmrr_mbep2d_Pictures_AP_RDS", "PulseSequenceDetails": "%SiemensSeq%\\ep2d_bold", "ReceiveCoilActiveElements": "HC2,4,6,7;SC", "ReceiveCoilName": "SpecialPurpose_4", "ReconMatrixPE": 64, "RefLinesPE": 12, "RepetitionTime": 0.61, "SAR": 0.214214, "ScanOptions": "FS", "ScanningSequence": "EP", "SequenceName": "*epfid2d1_64", "SequenceVariant": "SK", "SeriesDescription": "cmrr_mbep2d_Pictures_AP_RDS", "SeriesNumber": 5, "ShimSetting": [-3685, -7433, 3967, 824, -87, 265, 256, -3], "SliceThickness": 3, "SliceTiming": [0.2625, 0, 0.33, 0.0675, 0.395, 0.1325, 0.46, 0.1975, 0.525, 0.2625, 0, 0.33, 0.0675, 0.395, 0.1325, 0.46, 0.1975, 0.525, 0.2625, 0, 0.33, 0.0675, 0.395, 0.1325, 0.46, 0.1975, 0.525, 0.2625, 0, 0.33, 0.0675, 0.395, 0.1325, 0.46, 0.1975, 0.525], "SoftwareVersions": "syngo MR E11", "SpacingBetweenSlices": 3.3, "StationName": "AWP166182", "TaskName": "pictures", "TotalReadoutTime": 0.0340202, "TxRefAmp": 221.038, "dcmmeta_affine": [[-2.9978973865509033, -0.09735523909330368, -0.061576589941978455, 100.27608489990234], [-0.10859080404043198, 2.894265651702881, 0.8601371049880981, -100.80675506591797], [-0.028630349785089493, -0.7834210395812988, 3.1853370666503906, -58.33454895019531], [0.0, 0.0, 0.0, 1.0]], "dcmmeta_reorient_transform": [[0.0, -1.0, 0.0, 63.0], [1.0, 0.0, 0.0, 0.0], [0.0, 0.0, 1.0, 0.0], [0.0, 0.0, 0.0, 1.0]], "dcmmeta_shape": [64, 64, 36, 250], "dcmmeta_slice_dim": 2, "dcmmeta_version": 0.6, "global": {"const": {"AcquisitionMatrix": [64, 0, 0, 64], "AngioFlag": "N", "BitsAllocated": 16, "BitsStored": 12, "BodyPartExamined": "BRAIN", "Columns": 384, "EchoNumbers": 1, "EchoTime": 32.0, "EchoTrainLength": 64, "FlipAngle": 40.0, "HighBit": 11, "ImageOrientationPatient": [0.99929910661212, 0.03619693473408, -0.0095434501138, -0.0324517464767, 0.96475520367781, 0.26114034756658], "ImagePositionPatient": [-558.22943925931, -561.98900732492, -228.45658661444], "ImageType": ["ORIGINAL", "PRIMARY", "M", "ND", "NORM", "MOSAIC"], "ImagedNucleus": "1H", "ImagingFrequency": 123.25655, "InPlanePhaseEncodingDirection": "COL", "MRAcquisitionType": "2D", "MagneticFieldStrength": 3.0, "Manufacturer": "SIEMENS", "ManufacturerModelName": "Prisma", "Modality": "MR", "NumberOfAverages": 1.0, "NumberOfPhaseEncodingSteps": 64, "PercentPhaseFieldOfView": 100.0, "PercentSampling": 100.0, "PerformedProcedureStepStartTime": "144055.396000", "PhotometricInterpretation": "MONOCHROME2", "PixelBandwidth": 2300.0, "PixelRepresentation": 0, "PixelSpacing": [3.0, 3.0], "ProtocolName": "cmrr_mbep2d_Pictures_AP_RDS", "RepetitionTime": 610.0, "Rows": 384, "SAR": 0.21421411993611, "SamplesPerPixel": 1, "ScanOptions": "FS", "ScanningSequence": "EP", "SequenceName": "*epfid2d1_64", "SequenceVariant": "SK", "SeriesDescription": "cmrr_mbep2d_Pictures_AP_RDS", "SeriesNumber": 5, "SeriesTime": "150958.774000", "SliceLocation": -84.453787001537, "SliceThickness": 3.0, "SmallestImagePixelValue": 0, "SoftwareVersions": "syngo MR E11", "SpacingBetweenSlices": 3.2999999062857, "SpecificCharacterSet": "ISO_IR 100", "StudyID": "2", "StudyTime": "144055.335000", "TransmitCoilName": "Body", "VariableFlipAngleFlag": "N", "WindowCenterWidthExplanation": "Algo1"}, "slices": {}}, "time": {"samples": {"AcquisitionNumber": [1, 2, 3, 4, 5, 6, 7, 8, 9, 10, 11, 12, 13, 14, 15, 16, 17, 18, 19, 20, 21, 22, 23, 24, 25, 26, 27, 28, 29, 30, 31, 32, 33, 34, 35, 36, 37, 38, 39, 40, 41, 42, 43, 44, 45, 46, 47, 48, 49, 50, 51, 52, 53, 54, 55, 56, 57, 58, 59, 60, 61, 62, 63, 64, 65, 66, 67, 68, 69, 70, 71, 72, 73, 74, 75, 76, 77, 78, 79, 80, 81, 82, 83, 84, 85, 86, 87, 88, 89, 90, 91, 92, 93, 94, 95, 96, 97, 98, 99, 100, 101, 102, 103, 104, 105, 106, 107, 108, 109, 110, 111, 112, 113, 114, 115, 116, 117, 118, 119, 120, 121, 122, 123, 124, 125, 126, 127, 128, 129, 130, 131, 132, 133, 134, 135, 136, 137, 138, 139, 140, 141, 142, 143, 144, 145, 146, 147, 148, 149, 150, 151, 152, 153, 154, 155, 156, 157, 158, 159, 160, 161, 162, 163, 164, 165, 166, 167, 168, 169, 170, 171, 172, 173, 174, 175, 176, 177, 178, 179, 180, 181, 182, 183, 184, 185, 186, 187, 188, 189, 190, 191, 192, 193, 194, 195, 196, 197, 198, 199, 200, 201, 202, 203, 204, 205, 206, 207, 208, 209, 210, 211, 212, 213, 214, 215, 216, 217, 218, 219, 220, 221, 222, 223, 224, 225, 226, 227, 228, 229, 230, 231, 232, 233, 234, 235, 236, 237, 238, 239, 240, 241, 242, 243, 244, 245, 246, 247, 248, 249, 250], "AcquisitionTime": ["150936.950000", "150937.560000", "150938.170000", "150938.780000", "150939.390000", "150940.000000", "150940.610000", "150941.220000", "150941.830000", "150942.440000", "150943.050000", "150943.660000", "150944.270000", "150944.880000", "150945.490000", "150946.100000", "150946.710000", "150947.320000", "150947.930000", "150948.540000", "150949.150000", "150949.760000", "150950.370000", "150950.980000", "150951.590000", "150952.200000", "150952.810000", "150953.420000", "150954.030000", "150954.640000", "150955.250000", "150955.860000", "150956.470000", "150957.080000", "150957.690000", "150958.300000", "150958.910000", "150959.520000", "151000.130000", "151000.740000", "151001.350000", "151001.960000", "151002.570000", "151003.180000", "151003.790000", "151004.400000", "151005.010000", "151005.620000", "151006.230000", "151006.840000", "151007.450000", "151008.060000", "151008.670000", "151009.280000", "151009.890000", "151010.500000", "151011.110000", "151011.720000", "151012.330000", "151012.940000", "151013.550000", "151014.160000", "151014.770000", "151015.380000", "151015.990000", "151016.600000", "151017.210000", "151017.820000", "151018.430000", "151019.040000", "151019.650000", "151020.260000", "151020.870000", "151021.480000", "151022.090000", "151022.700000", "151023.310000", "151023.920000", "151024.530000", "151025.140000", "151025.750000", "151026.360000", "151026.970000", "151027.580000", "151028.190000", "151028.800000", "151029.410000", "151030.020000", "151030.630000", "151031.240000", "151031.850000", "151032.460000", "151033.070000", "151033.680000", "151034.290000", "151034.900000", "151035.510000", "151036.120000", "151036.730000", "151037.340000", "151037.950000", "151038.560000", "151039.170000", "151039.780000", "151040.390000", "151041.000000", "151041.610000", "151042.220000", "151042.830000", "151043.440000", "151044.050000", "151044.660000", "151045.270000", "151045.880000", "151046.490000", "151047.100000", "151047.710000", "151048.320000", "151048.930000", "151049.540000", "151050.150000", "151050.760000", "151051.370000", "151051.980000", "151052.590000", "151053.200000", "151053.810000", "151054.420000", "151055.030000", "151055.640000", "151056.250000", "151056.860000", "151057.470000", "151058.080000", "151058.690000", "151059.300000", "151059.910000", "151100.520000", "151101.130000", "151101.740000", "151102.350000", "151102.960000", "151103.570000", "151104.180000", "151104.790000", "151105.400000", "151106.010000", "151106.620000", "151107.230000", "151107.840000", "151108.450000", "151109.060000", "151109.670000", "151110.280000", "151110.890000", "151111.500000", "151112.110000", "151112.720000", "151113.330000", "151113.940000", "151114.550000", "151115.160000", "151115.770000", "151116.380000", "151116.990000", "151117.600000", "151118.210000", "151118.820000", "151119.430000", "151120.040000", "151120.650000", "151121.260000", "151121.870000", "151122.480000", "151123.090000", "151123.700000", "151124.310000", "151124.920000", "151125.530000", "151126.140000", "151126.750000", "151127.360000", "151127.970000", "151128.580000", "151129.190000", "151129.800000", "151130.410000", "151131.020000", "151131.630000", "151132.240000", "151132.850000", "151133.460000", "151134.070000", "151134.680000", "151135.290000", "151135.900000", "151136.510000", "151137.120000", "151137.730000", "151138.340000", "151138.950000", "151139.560000", "151140.170000", "151140.780000", "151141.390000", "151142.000000", "151142.610000", "151143.220000", "151143.830000", "151144.440000", "151145.050000", "151145.660000", "151146.270000", "151146.880000", "151147.490000", "151148.100000", "151148.710000", "151149.320000", "151149.930000", "151150.540000", "151151.150000", "151151.760000", "151152.370000", "151152.980000", "151153.590000", "151154.200000", "151154.810000", "151155.420000", "151156.030000", "151156.640000", "151157.250000", "151157.860000", "151158.470000", "151159.080000", "151159.690000", "151200.300000", "151200.910000", "151201.520000", "151202.130000", "151202.740000", "151203.350000", "151203.960000", "151204.570000", "151205.180000", "151205.790000", "151206.400000", "151207.010000", "151207.620000", "151208.230000", "151208.840000"], "ContentTime": ["150958.778000", "150958.781000", "150958.784000", "150958.786000", "150958.788000", "150958.791000", "150958.794000", "150958.796000", "150958.798000", "150958.801000", "150958.803000", "150958.806000", "150958.808000", "150958.810000", "150958.813000", "150958.815000", "150958.818000", "150958.820000", "150958.822000", "150958.825000", "150958.827000", "150958.830000", "150958.832000", "150958.846000", "150958.848000", "150958.850000", "150958.853000", "150958.858000", "150958.860000", "150958.863000", "150958.865000", "150958.867000", "150958.870000", "150958.872000", "151018.773000", "151018.776000", "151018.778000", "151018.781000", "151018.783000", "151018.785000", "151018.788000", "151018.790000", "151018.792000", "151018.795000", "151018.797000", "151018.800000", "151018.804000", "151018.806000", "151018.809000", "151018.811000", "151018.813000", "151018.816000", "151018.818000", "151018.821000", "151018.824000", "151018.826000", "151018.829000", "151018.831000", "151018.833000", "151018.836000", "151018.838000", "151018.840000", "151018.843000", "151018.845000", "151018.848000", "151018.850000", "151018.852000", "151038.774000", "151038.777000", "151038.780000", "151038.782000", "151038.784000", "151038.787000", "151038.789000", "151038.792000", "151038.794000", "151038.797000", "151038.800000", "151038.802000", "151038.805000", "151038.808000", "151038.818000", "151038.821000", "151038.823000", "151038.826000", "151038.828000", "151038.830000", "151038.833000", "151038.836000", "151038.838000", "151038.847000", "151038.850000", "151038.853000", "151038.856000", "151038.858000", "151038.861000", "151038.864000", "151038.866000", "151038.869000", "151038.871000", "151058.774000", "151058.777000", "151058.780000", "151058.782000", "151058.784000", "151058.787000", "151058.789000", "151058.791000", "151058.794000", "151058.796000", "151058.798000", "151058.801000", "151058.803000", "151058.805000", "151058.808000", "151058.810000", "151058.813000", "151058.815000", "151058.817000", "151058.820000", "151058.822000", "151058.824000", "151058.827000", "151058.829000", "151058.831000", "151058.834000", "151058.836000", "151058.839000", "151058.841000", "151058.849000", "151058.852000", "151058.854000", "151058.856000", "151118.774000", "151118.777000", "151118.779000", "151118.782000", "151118.784000", "151118.786000", "151118.789000", "151118.791000", "151118.794000", "151118.796000", "151118.798000", "151118.801000", "151118.803000", "151118.805000", "151118.808000", "151118.811000", "151118.813000", "151118.815000", "151118.818000", "151118.820000", "151118.822000", "151118.825000", "151118.827000", "151118.829000", "151118.832000", "151118.834000", "151118.837000", "151118.839000", "151118.841000", "151118.844000", "151118.846000", "151118.849000", "151118.851000", "151138.774000", "151138.777000", "151138.779000", "151138.782000", "151138.784000", "151138.787000", "151138.789000", "151138.791000", "151138.794000", "151138.796000", "151138.799000", "151138.801000", "151138.804000", "151138.806000", "151138.809000", "151138.811000", "151138.813000", "151138.816000", "151138.818000", "151138.821000", "151138.823000", "151138.825000", "151138.828000", "151138.830000", "151138.832000", "151138.835000", "151138.837000", "151138.840000", "151138.842000", "151138.844000", "151138.847000", "151138.849000", "151158.774000", "151158.777000", "151158.779000", "151158.781000", "151158.784000", "151158.786000", "151158.789000", "151158.791000", "151158.793000", "151158.796000", "151158.798000", "151158.800000", "151158.806000", "151158.809000", "151158.811000", "151158.813000", "151158.816000", "151158.818000", "151158.821000", "151158.823000", "151158.825000", "151158.828000", "151158.830000", "151158.832000", "151158.835000", "151158.837000", "151158.839000", "151158.842000", "151158.844000", "151158.847000", "151158.849000", "151158.851000", "151158.854000", "151210.753000", "151210.755000", "151210.758000", "151210.760000", "151210.763000", "151210.765000", "151210.767000", "151210.770000", "151210.772000", "151210.775000", "151210.777000", "151210.780000", "151210.782000", "151210.784000", "151210.787000", "151210.792000", "151210.795000", "151210.797000", "151210.800000"], "InstanceCreationTime": ["150958.778000", "150958.781000", "150958.784000", "150958.786000", "150958.788000", "150958.791000", "150958.794000", "150958.796000", "150958.798000", "150958.801000", "150958.803000", "150958.806000", "150958.808000", "150958.810000", "150958.813000", "150958.815000", "150958.818000", "150958.820000", "150958.822000", "150958.825000", "150958.827000", "150958.830000", "150958.832000", "150958.846000", "150958.848000", "150958.850000", "150958.853000", "150958.858000", "150958.860000", "150958.863000", "150958.865000", "150958.867000", "150958.870000", "150958.872000", "151018.773000", "151018.776000", "151018.778000", "151018.781000", "151018.783000", "151018.785000", "151018.788000", "151018.790000", "151018.792000", "151018.795000", "151018.797000", "151018.800000", "151018.804000", "151018.806000", "151018.809000", "151018.811000", "151018.813000", "151018.816000", "151018.818000", "151018.821000", "151018.824000", "151018.826000", "151018.829000", "151018.831000", "151018.833000", "151018.836000", "151018.838000", "151018.840000", "151018.843000", "151018.845000", "151018.848000", "151018.850000", "151018.852000", "151038.774000", "151038.777000", "151038.780000", "151038.782000", "151038.784000", "151038.787000", "151038.789000", "151038.792000", "151038.794000", "151038.797000", "151038.800000", "151038.802000", "151038.805000", "151038.808000", "151038.818000", "151038.821000", "151038.823000", "151038.826000", "151038.828000", "151038.830000", "151038.833000", "151038.836000", "151038.838000", "151038.847000", "151038.850000", "151038.853000", "151038.856000", "151038.858000", "151038.861000", "151038.864000", "151038.866000", "151038.869000", "151038.871000", "151058.774000", "151058.777000", "151058.780000", "151058.782000", "151058.784000", "151058.787000", "151058.789000", "151058.791000", "151058.794000", "151058.796000", "151058.798000", "151058.801000", "151058.803000", "151058.805000", "151058.808000", "151058.810000", "151058.813000", "151058.815000", "151058.817000", "151058.820000", "151058.822000", "151058.824000", "151058.827000", "151058.829000", "151058.831000", "151058.834000", "151058.836000", "151058.839000", "151058.841000", "151058.849000", "151058.852000", "151058.854000", "151058.856000", "151118.774000", "151118.777000", "151118.779000", "151118.782000", "151118.784000", "151118.786000", "151118.789000", "151118.791000", "151118.794000", "151118.796000", "151118.798000", "151118.801000", "151118.803000", "151118.805000", "151118.808000", "151118.811000", "151118.813000", "151118.815000", "151118.818000", "151118.820000", "151118.822000", "151118.825000", "151118.827000", "151118.829000", "151118.832000", "151118.834000", "151118.837000", "151118.839000", "151118.841000", "151118.844000", "151118.846000", "151118.849000", "151118.851000", "151138.774000", "151138.777000", "151138.779000", "151138.782000", "151138.784000", "151138.787000", "151138.789000", "151138.791000", "151138.794000", "151138.796000", "151138.799000", "151138.801000", "151138.804000", "151138.806000", "151138.809000", "151138.811000", "151138.813000", "151138.816000", "151138.818000", "151138.821000", "151138.823000", "151138.825000", "151138.828000", "151138.830000", "151138.832000", "151138.835000", "151138.837000", "151138.840000", "151138.842000", "151138.844000", "151138.847000", "151138.849000", "151158.774000", "151158.777000", "151158.779000", "151158.781000", "151158.784000", "151158.786000", "151158.789000", "151158.791000", "151158.793000", "151158.796000", "151158.798000", "151158.800000", "151158.806000", "151158.809000", "151158.811000", "151158.813000", "151158.816000", "151158.818000", "151158.821000", "151158.823000", "151158.825000", "151158.828000", "151158.830000", "151158.832000", "151158.835000", "151158.837000", "151158.839000", "151158.842000", "151158.844000", "151158.847000", "151158.849000", "151158.851000", "151158.854000", "151210.753000", "151210.755000", "151210.758000", "151210.760000", "151210.763000", "151210.765000", "151210.767000", "151210.770000", "151210.772000", "151210.775000", "151210.777000", "151210.780000", "151210.782000", "151210.784000", "151210.787000", "151210.792000", "151210.795000", "151210.797000", "151210.800000"], "InstanceNumber": [1, 2, 3, 4, 5, 6, 7, 8, 9, 10, 11, 12, 13, 14, 15, 16, 17, 18, 19, 20, 21, 22, 23, 24, 25, 26, 27, 28, 29, 30, 31, 32, 33, 34, 35, 36, 37, 38, 39, 40, 41, 42, 43, 44, 45, 46, 47, 48, 49, 50, 51, 52, 53, 54, 55, 56, 57, 58, 59, 60, 61, 62, 63, 64, 65, 66, 67, 68, 69, 70, 71, 72, 73, 74, 75, 76, 77, 78, 79, 80, 81, 82, 83, 84, 85, 86, 87, 88, 89, 90, 91, 92, 93, 94, 95, 96, 97, 98, 99, 100, 101, 102, 103, 104, 105, 106, 107, 108, 109, 110, 111, 112, 113, 114, 115, 116, 117, 118, 119, 120, 121, 122, 123, 124, 125, 126, 127, 128, 129, 130, 131, 132, 133, 134, 135, 136, 137, 138, 139, 140, 141, 142, 143, 144, 145, 146, 147, 148, 149, 150, 151, 152, 153, 154, 155, 156, 157, 158, 159, 160, 161, 162, 163, 164, 165, 166, 167, 168, 169, 170, 171, 172, 173, 174, 175, 176, 177, 178, 179, 180, 181, 182, 183, 184, 185, 186, 187, 188, 189, 190, 191, 192, 193, 194, 195, 196, 197, 198, 199, 200, 201, 202, 203, 204, 205, 206, 207, 208, 209, 210, 211, 212, 213, 214, 215, 216, 217, 218, 219, 220, 221, 222, 223, 224, 225, 226, 227, 228, 229, 230, 231, 232, 233, 234, 235, 236, 237, 238, 239, 240, 241, 242, 243, 244, 245, 246, 247, 248, 249, 250], "LargestImagePixelValue": [470, 451, 452, 439, 439, 456, 418, 472, 444, 434, 429, 423, 443, 418, 457, 447, 456, 456, 472, 441, 440, 451, 638, 509, 565, 542, 442, 462, 430, 440, 447, 438, 486, 502, 437, 445, 457, 442, 435, 439, 425, 440, 445, 436, 454, 449, 424, 452, 442, 443, 486, 470, 461, 441, 430, 469, 477, 441, 414, 430, 495, 478, 433, 444, 440, 429, 428, 427, 439, 441, 429, 424, 447, 433, 432, 525, 426, 445, 573, 436, 428, 444, 425, 432, 422, 426, 427, 427, 428, 426, 427, 434, 429, 433, 426, 428, 423, 461, 448, 454, 446, 432, 431, 417, 429, 442, 437, 445, 447, 461, 429, 424, 443, 445, 430, 445, 435, 442, 435, 423, 449, 433, 432, 462, 543, 582, 532, 583, 557, 499, 532, 449, 526, 453, 451, 457, 441, 460, 525, 452, 495, 466, 483, 424, 437, 465, 428, 427, 462, 436, 546, 593, 475, 502, 479, 481, 500, 464, 449, 486, 449, 434, 464, 509, 427, 434, 440, 458, 454, 452, 470, 467, 445, 435, 433, 439, 524, 534, 461, 456, 454, 454, 459, 439, 432, 429, 467, 441, 442, 523, 426, 456, 455, 452, 442, 436, 458, 446, 412, 449, 460, 532, 520, 476, 563, 518, 513, 456, 497, 471, 411, 430, 424, 446, 482, 487, 442, 495, 453, 457, 447, 458, 477, 435, 523, 516, 466, 441, 426, 470, 445, 427, 446, 533, 467, 460, 488, 458, 441, 456, 422, 460, 443, 464, 468, 474, 473, 475, 472, 478], "WindowCenter": [274.0, 271.0, 270.0, 270.0, 268.0, 266.0, 265.0, 270.0, 269.0, 268.0, 267.0, 267.0, 268.0, 268.0, 268.0, 268.0, 267.0, 268.0, 266.0, 261.0, 253.0, 262.0, 262.0, 261.0, 264.0, 267.0, 267.0, 270.0, 266.0, 269.0, 269.0, 269.0, 268.0, 270.0, 266.0, 267.0, 267.0, 267.0, 266.0, 267.0, 267.0, 269.0, 268.0, 267.0, 269.0, 269.0, 266.0, 269.0, 265.0, 267.0, 261.0, 270.0, 268.0, 267.0, 266.0, 268.0, 269.0, 268.0, 266.0, 265.0, 266.0, 268.0, 265.0, 269.0, 268.0, 269.0, 269.0, 268.0, 268.0, 270.0, 268.0, 267.0, 268.0, 268.0, 270.0, 270.0, 269.0, 270.0, 270.0, 268.0, 267.0, 268.0, 267.0, 268.0, 268.0, 268.0, 269.0, 268.0, 269.0, 269.0, 269.0, 269.0, 269.0, 269.0, 268.0, 268.0, 270.0, 270.0, 270.0, 272.0, 268.0, 268.0, 268.0, 268.0, 267.0, 267.0, 267.0, 269.0, 267.0, 269.0, 268.0, 267.0, 268.0, 270.0, 269.0, 268.0, 268.0, 270.0, 269.0, 268.0, 269.0, 268.0, 265.0, 267.0, 264.0, 261.0, 273.0, 257.0, 273.0, 265.0, 266.0, 270.0, 270.0, 267.0, 267.0, 264.0, 260.0, 259.0, 262.0, 259.0, 270.0, 265.0, 264.0, 257.0, 263.0, 268.0, 262.0, 263.0, 268.0, 257.0, 265.0, 264.0, 269.0, 266.0, 265.0, 265.0, 267.0, 266.0, 265.0, 270.0, 265.0, 265.0, 264.0, 266.0, 265.0, 262.0, 266.0, 268.0, 267.0, 264.0, 269.0, 265.0, 267.0, 265.0, 262.0, 265.0, 271.0, 268.0, 263.0, 266.0, 269.0, 263.0, 265.0, 267.0, 268.0, 264.0, 269.0, 269.0, 265.0, 268.0, 269.0, 268.0, 268.0, 270.0, 267.0, 266.0, 269.0, 267.0, 266.0, 262.0, 265.0, 263.0, 266.0, 267.0, 264.0, 265.0, 264.0, 262.0, 272.0, 267.0, 265.0, 266.0, 266.0, 265.0, 255.0, 267.0, 266.0, 274.0, 267.0, 270.0, 266.0, 272.0, 270.0, 265.0, 263.0, 265.0, 266.0, 267.0, 262.0, 266.0, 266.0, 264.0, 263.0, 268.0, 267.0, 268.0, 268.0, 267.0, 265.0, 270.0, 262.0, 273.0, 264.0, 267.0, 265.0, 264.0, 263.0, 262.0, 264.0, 260.0], "WindowWidth": [604.0, 599.0, 597.0, 596.0, 593.0, 589.0, 587.0, 597.0, 594.0, 592.0, 591.0, 591.0, 592.0, 592.0, 592.0, 593.0, 590.0, 593.0, 589.0, 579.0, 563.0, 579.0, 580.0, 579.0, 585.0, 590.0, 592.0, 597.0, 589.0, 594.0, 595.0, 595.0, 592.0, 596.0, 590.0, 591.0, 591.0, 591.0, 589.0, 590.0, 592.0, 594.0, 592.0, 590.0, 593.0, 595.0, 589.0, 594.0, 587.0, 591.0, 578.0, 597.0, 593.0, 590.0, 588.0, 593.0, 595.0, 593.0, 588.0, 586.0, 590.0, 592.0, 587.0, 595.0, 592.0, 594.0, 593.0, 592.0, 592.0, 595.0, 592.0, 591.0, 592.0, 593.0, 595.0, 595.0, 593.0, 596.0, 596.0, 592.0, 591.0, 593.0, 590.0, 592.0, 592.0, 593.0, 593.0, 593.0, 594.0, 594.0, 593.0, 595.0, 593.0, 594.0, 593.0, 593.0, 595.0, 596.0, 596.0, 599.0, 593.0, 593.0, 592.0, 592.0, 590.0, 590.0, 591.0, 595.0, 591.0, 593.0, 593.0, 592.0, 592.0, 597.0, 594.0, 593.0, 592.0, 595.0, 594.0, 592.0, 594.0, 592.0, 587.0, 591.0, 583.0, 579.0, 603.0, 571.0, 603.0, 587.0, 590.0, 597.0, 597.0, 592.0, 591.0, 585.0, 577.0, 576.0, 581.0, 576.0, 596.0, 587.0, 585.0, 572.0, 583.0, 593.0, 581.0, 584.0, 593.0, 573.0, 586.0, 584.0, 596.0, 589.0, 588.0, 588.0, 592.0, 590.0, 588.0, 598.0, 587.0, 587.0, 586.0, 589.0, 586.0, 580.0, 589.0, 593.0, 591.0, 585.0, 595.0, 588.0, 591.0, 587.0, 582.0, 586.0, 597.0, 591.0, 583.0, 589.0, 596.0, 582.0, 587.0, 591.0, 593.0, 585.0, 595.0, 593.0, 587.0, 590.0, 594.0, 592.0, 592.0, 595.0, 591.0, 588.0, 594.0, 591.0, 588.0, 581.0, 586.0, 582.0, 590.0, 591.0, 586.0, 587.0, 584.0, 583.0, 601.0, 591.0, 587.0, 588.0, 589.0, 587.0, 568.0, 590.0, 588.0, 604.0, 591.0, 597.0, 589.0, 600.0, 595.0, 586.0, 584.0, 586.0, 590.0, 591.0, 580.0, 588.0, 588.0, 584.0, 583.0, 592.0, 590.0, 593.0, 592.0, 590.0, 587.0, 596.0, 581.0, 601.0, 586.0, 590.0, 586.0, 585.0, 584.0, 581.0, 584.0, 578.0]}, "slices": {}}, "EventTimestamp": "15-11-16"}