{"AcquisitionMatrixPE": 64, "AcquisitionNumber": 1, "AcquisitionTime": "15:50:56.695000", "BandwidthPerPixelPhaseEncode": 28.935, "BaseResolution": 64, "BodyPartExamined": "BRAIN", "CoilCombinationMethod": "Sum of Squares", "ConsistencyInfo": "N4_VE11E_LATEST_20181129", "ConversionSoftware": "dcm2niix", "ConversionSoftwareVersion": "v1.0.20230411", "DerivedVendorReportedEchoSpacing": 0.000540003, "DeviceSerialNumber": "166182", "DwellTime": 3.4e-06, "EchoTime": 0.032, "EchoTrainLength": 64, "EffectiveEchoSpacing": 0.000540003, "FlipAngle": 40, "HeudiconvVersion": "0.13.1", "ImageOrientationPatientDICOM": [0.998152, -0.0202708, -0.0572873, 0.0191655, 0.999621, -0.0197782], "ImageOrientationText": "Tra>Sag(-3.3)>Cor(-1.1)", "ImageType": ["ORIGINAL", "PRIMARY", "M", "ND", "NORM", "MOSAIC"], "ImagingFrequency": 123.257342, "InPlanePhaseEncodingDirectionDICOM": "COL", "InstitutionAddress": "PEARSE STREET .,City,District,IE,D2", "InstitutionName": "TCIN", "InstitutionalDepartmentName": "MRI", "MRAcquisitionType": "2D", "MagneticFieldStrength": 3, "Manufacturer": "Siemens", "ManufacturersModelName": "Prisma", "Modality": "MR", "MultibandAccelerationFactor": 4, "NonlinearGradientCorrection": false, "PartialFourier": 1, "PatientPosition": "HFS", "PercentPhaseFOV": 100, "PercentSampling": 100, "PhaseEncodingDirection": "j-", "PhaseEncodingSteps": 64, "PhaseResolution": 1, "PixelBandwidth": 2300, "ProcedureStepDescription": "Rhodri^Head BOLD", "ProtocolName": "cmrr_mbep2d_bold_Pictures_AP", "PulseSequenceDetails": "%SiemensSeq%\\ep2d_bold", "ReceiveCoilActiveElements": "HC2,4,6,7;SC", "ReceiveCoilName": "HeadNeck_64", "ReconMatrixPE": 64, "RefLinesPE": 12, "RepetitionTime": 0.61, "SAR": 0.233579, "ScanOptions": "FS", "ScanningSequence": "EP", "SequenceName": "*epfid2d1_64", "SequenceVariant": "SK", "SeriesDescription": "cmrr_mbep2d_bold_Pictures_AP", "SeriesNumber": 8, "ShimSetting": [-3669, -7478, 3972, 818, -192, 544, 47, -97], "SliceThickness": 3, "SliceTiming": [0.2625, 0, 0.3275, 0.065, 0.395, 0.1325, 0.46, 0.1975, 0.525, 0.2625, 0, 0.3275, 0.065, 0.395, 0.1325, 0.46, 0.1975, 0.525, 0.2625, 0, 0.3275, 0.065, 0.395, 0.1325, 0.46, 0.1975, 0.525, 0.2625, 0, 0.3275, 0.065, 0.395, 0.1325, 0.46, 0.1975, 0.525], "SoftwareVersions": "syngo MR E11", "SpacingBetweenSlices": 3.3, "StationName": "AWP166182", "TaskName": "pictures", "TotalReadoutTime": 0.0340202, "TxRefAmp": 226.456, "dcmmeta_affine": [[-2.9944558143615723, 0.05749649554491043, -0.19029949605464935, 99.59357452392578], [0.06081242486834526, 2.9988620281219482, -0.06152423471212387, -105.79761505126953], [-0.17186197638511658, 0.05933459475636482, 3.2939341068267822, -85.07081604003906], [0.0, 0.0, 0.0, 1.0]], "dcmmeta_reorient_transform": [[0.0, -1.0, 0.0, 63.0], [1.0, 0.0, 0.0, 0.0], [0.0, 0.0, 1.0, 0.0], [0.0, 0.0, 0.0, 1.0]], "dcmmeta_shape": [64, 64, 36, 510], "dcmmeta_slice_dim": 2, "dcmmeta_version": 0.6, "global": {"const": {"AcquisitionMatrix": [64, 0, 0, 64], "AngioFlag": "N", "BitsAllocated": 16, "BitsStored": 12, "BodyPartExamined": "BRAIN", "Columns": 384, "EchoNumbers": 1, "EchoTime": 32.0, "EchoTrainLength": 64, "FlipAngle": 40.0, "HighBit": 11, "ImageOrientationPatient": [0.99815192067804, -0.0202708080815, -0.0572873248325, 0.01916549826855, 0.99962068133018, -0.0197781984291], "ImagePositionPatient": [-591.52821761728, -553.21863085783, -44.341284297131], "ImageType": ["ORIGINAL", "PRIMARY", "M", "ND", "NORM", "MOSAIC"], "ImagedNucleus": "1H", "ImagingFrequency": 123.257342, "InPlanePhaseEncodingDirection": "COL", "MRAcquisitionType": "2D", "MagneticFieldStrength": 3.0, "Manufacturer": "SIEMENS", "ManufacturerModelName": "Prisma", "Modality": "MR", "NumberOfAverages": 1.0, "NumberOfPhaseEncodingSteps": 64, "PercentPhaseFieldOfView": 100.0, "PercentSampling": 100.0, "PerformedProcedureStepStartTime": "152442.134000", "PhotometricInterpretation": "MONOCHROME2", "PixelBandwidth": 2300.0, "PixelRepresentation": 0, "PixelSpacing": [3.0, 3.0], "ProtocolName": "cmrr_mbep2d_bold_Pictures_AP", "RepetitionTime": 610.0, "Rows": 384, "SAR": 0.23357872830971, "SamplesPerPixel": 1, "ScanOptions": "FS", "ScanningSequence": "EP", "SequenceName": "*epfid2d1_64", "SequenceVariant": "SK", "SeriesDescription": "cmrr_mbep2d_bold_Pictures_AP", "SeriesNumber": 8, "SeriesTime": "155113.861000", "SliceLocation": -88.685192824727, "SliceThickness": 3.0, "SmallestImagePixelValue": 0, "SoftwareVersions": "syngo MR E11", "SpacingBetweenSlices": 3.300000081175, "SpecificCharacterSet": "ISO_IR 100", "StudyID": "2", "StudyTime": "152442.069000", "TransmitCoilName": "Body", "VariableFlipAngleFlag": "N", "WindowCenterWidthExplanation": "Algo1"}, "slices": {}}, "time": {"samples": {"AcquisitionNumber": [1, 2, 3, 4, 5, 6, 7, 8, 9, 10, 11, 12, 13, 14, 15, 16, 17, 18, 19, 20, 21, 22, 23, 24, 25, 26, 27, 28, 29, 30, 31, 32, 33, 34, 35, 36, 37, 38, 39, 40, 41, 42, 43, 44, 45, 46, 47, 48, 49, 50, 51, 52, 53, 54, 55, 56, 57, 58, 59, 60, 61, 62, 63, 64, 65, 66, 67, 68, 69, 70, 71, 72, 73, 74, 75, 76, 77, 78, 79, 80, 81, 82, 83, 84, 85, 86, 87, 88, 89, 90, 91, 92, 93, 94, 95, 96, 97, 98, 99, 100, 101, 102, 103, 104, 105, 106, 107, 108, 109, 110, 111, 112, 113, 114, 115, 116, 117, 118, 119, 120, 121, 122, 123, 124, 125, 126, 127, 128, 129, 130, 131, 132, 133, 134, 135, 136, 137, 138, 139, 140, 141, 142, 143, 144, 145, 146, 147, 148, 149, 150, 151, 152, 153, 154, 155, 156, 157, 158, 159, 160, 161, 162, 163, 164, 165, 166, 167, 168, 169, 170, 171, 172, 173, 174, 175, 176, 177, 178, 179, 180, 181, 182, 183, 184, 185, 186, 187, 188, 189, 190, 191, 192, 193, 194, 195, 196, 197, 198, 199, 200, 201, 202, 203, 204, 205, 206, 207, 208, 209, 210, 211, 212, 213, 214, 215, 216, 217, 218, 219, 220, 221, 222, 223, 224, 225, 226, 227, 228, 229, 230, 231, 232, 233, 234, 235, 236, 237, 238, 239, 240, 241, 242, 243, 244, 245, 246, 247, 248, 249, 250, 251, 252, 253, 254, 255, 256, 257, 258, 259, 260, 261, 262, 263, 264, 265, 266, 267, 268, 269, 270, 271, 272, 273, 274, 275, 276, 277, 278, 279, 280, 281, 282, 283, 284, 285, 286, 287, 288, 289, 290, 291, 292, 293, 294, 295, 296, 297, 298, 299, 300, 301, 302, 303, 304, 305, 306, 307, 308, 309, 310, 311, 312, 313, 314, 315, 316, 317, 318, 319, 320, 321, 322, 323, 324, 325, 326, 327, 328, 329, 330, 331, 332, 333, 334, 335, 336, 337, 338, 339, 340, 341, 342, 343, 344, 345, 346, 347, 348, 349, 350, 351, 352, 353, 354, 355, 356, 357, 358, 359, 360, 361, 362, 363, 364, 365, 366, 367, 368, 369, 370, 371, 372, 373, 374, 375, 376, 377, 378, 379, 380, 381, 382, 383, 384, 385, 386, 387, 388, 389, 390, 391, 392, 393, 394, 395, 396, 397, 398, 399, 400, 401, 402, 403, 404, 405, 406, 407, 408, 409, 410, 411, 412, 413, 414, 415, 416, 417, 418, 419, 420, 421, 422, 423, 424, 425, 426, 427, 428, 429, 430, 431, 432, 433, 434, 435, 436, 437, 438, 439, 440, 441, 442, 443, 444, 445, 446, 447, 448, 449, 450, 451, 452, 453, 454, 455, 456, 457, 458, 459, 460, 461, 462, 463, 464, 465, 466, 467, 468, 469, 470, 471, 472, 473, 474, 475, 476, 477, 478, 479, 480, 481, 482, 483, 484, 485, 486, 487, 488, 489, 490, 491, 492, 493, 494, 495, 496, 497, 498, 499, 500, 501, 502, 503, 504, 505, 506, 507, 508, 509, 510], "AcquisitionTime": ["155056.695000", "155057.305000", "155057.915000", "155058.525000", "155059.135000", "155059.745000", "155100.355000", "155100.965000", "155101.575000", "155102.185000", "155102.795000", "155103.405000", "155104.015000", "155104.625000", "155105.235000", "155105.845000", "155106.455000", "155107.065000", "155107.675000", "155108.285000", "155108.895000", "155109.505000", "155110.115000", "155110.725000", "155111.335000", "155111.945000", "155112.555000", "155113.165000", "155113.775000", "155114.385000", "155114.995000", "155115.605000", "155116.215000", "155116.825000", "155117.435000", "155118.045000", "155118.655000", "155119.265000", "155119.875000", "155120.485000", "155121.095000", "155121.705000", "155122.315000", "155122.925000", "155123.535000", "155124.145000", "155124.755000", "155125.365000", "155125.975000", "155126.585000", "155127.195000", "155127.805000", "155128.415000", "155129.025000", "155129.635000", "155130.245000", "155130.855000", "155131.465000", "155132.075000", "155132.685000", "155133.295000", "155133.905000", "155134.515000", "155135.125000", "155135.735000", "155136.345000", "155136.955000", "155137.565000", "155138.175000", "155138.785000", "155139.395000", "155140.005000", "155140.615000", "155141.225000", "155141.835000", "155142.445000", "155143.055000", "155143.665000", "155144.275000", "155144.885000", "155145.495000", "155146.105000", "155146.715000", "155147.325000", "155147.935000", "155148.545000", "155149.155000", "155149.765000", "155150.375000", "155150.985000", "155151.595000", "155152.205000", "155152.815000", "155153.425000", "155154.035000", "155154.645000", "155155.255000", "155155.865000", "155156.475000", "155157.085000", "155157.695000", "155158.305000", "155158.915000", "155159.525000", "155200.135000", "155200.745000", "155201.355000", "155201.965000", "155202.575000", "155203.185000", "155203.795000", "155204.405000", "155205.015000", "155205.625000", "155206.235000", "155206.845000", "155207.455000", "155208.065000", "155208.675000", "155209.285000", "155209.895000", "155210.505000", "155211.115000", "155211.725000", "155212.335000", "155212.945000", "155213.555000", "155214.165000", "155214.775000", "155215.385000", "155215.995000", "155216.605000", "155217.215000", "155217.825000", "155218.435000", "155219.045000", "155219.655000", "155220.265000", "155220.875000", "155221.485000", "155222.095000", "155222.705000", "155223.315000", "155223.925000", "155224.535000", "155225.145000", "155225.755000", "155226.365000", "155226.975000", "155227.585000", "155228.195000", "155228.805000", "155229.415000", "155230.025000", "155230.635000", "155231.245000", "155231.855000", "155232.465000", "155233.075000", "155233.685000", "155234.295000", "155234.905000", "155235.515000", "155236.125000", "155236.735000", "155237.345000", "155237.955000", "155238.565000", "155239.175000", "155239.785000", "155240.395000", "155241.005000", "155241.615000", "155242.225000", "155242.835000", "155243.445000", "155244.055000", "155244.665000", "155245.275000", "155245.885000", "155246.495000", "155247.105000", "155247.715000", "155248.325000", "155248.935000", "155249.545000", "155250.155000", "155250.765000", "155251.375000", "155251.985000", "155252.595000", "155253.205000", "155253.815000", "155254.425000", "155255.035000", "155255.645000", "155256.255000", "155256.865000", "155257.475000", "155258.085000", "155258.695000", "155259.305000", "155259.915000", "155300.525000", "155301.135000", "155301.745000", "155302.355000", "155302.965000", "155303.575000", "155304.185000", "155304.795000", "155305.405000", "155306.015000", "155306.625000", "155307.235000", "155307.845000", "155308.455000", "155309.065000", "155309.675000", "155310.285000", "155310.895000", "155311.505000", "155312.115000", "155312.725000", "155313.335000", "155313.945000", "155314.555000", "155315.165000", "155315.775000", "155316.385000", "155316.995000", "155317.605000", "155318.215000", "155318.825000", "155319.435000", "155320.045000", "155320.655000", "155321.265000", "155321.875000", "155322.485000", "155323.095000", "155323.705000", "155324.315000", "155324.925000", "155325.535000", "155326.145000", "155326.755000", "155327.365000", "155327.975000", "155328.585000", "155329.195000", "155329.805000", "155330.415000", "155331.025000", "155331.635000", "155332.245000", "155332.855000", "155333.465000", "155334.075000", "155334.685000", "155335.295000", "155335.905000", "155336.515000", "155337.125000", "155337.735000", "155338.345000", "155338.955000", "155339.565000", "155340.175000", "155340.785000", "155341.395000", "155342.005000", "155342.615000", "155343.225000", "155343.835000", "155344.445000", "155345.055000", "155345.665000", "155346.275000", "155346.885000", "155347.495000", "155348.105000", "155348.715000", "155349.325000", "155349.935000", "155350.545000", "155351.155000", "155351.765000", "155352.375000", "155352.985000", "155353.595000", "155354.205000", "155354.815000", "155355.425000", "155356.035000", "155356.645000", "155357.255000", "155357.865000", "155358.475000", "155359.085000", "155359.695000", "155400.305000", "155400.915000", "155401.525000", "155402.135000", "155402.745000", "155403.355000", "155403.965000", "155404.575000", "155405.185000", "155405.795000", "155406.405000", "155407.015000", "155407.625000", "155408.235000", "155408.845000", "155409.455000", "155410.065000", "155410.675000", "155411.285000", "155411.895000", "155412.505000", "155413.115000", "155413.725000", "155414.335000", "155414.945000", "155415.555000", "155416.165000", "155416.775000", "155417.385000", "155417.995000", "155418.605000", "155419.215000", "155419.825000", "155420.435000", "155421.045000", "155421.655000", "155422.265000", "155422.875000", "155423.485000", "155424.095000", "155424.705000", "155425.315000", "155425.925000", "155426.535000", "155427.145000", "155427.755000", "155428.365000", "155428.975000", "155429.585000", "155430.195000", "155430.805000", "155431.415000", "155432.025000", "155432.635000", "155433.245000", "155433.855000", "155434.465000", "155435.075000", "155435.685000", "155436.295000", "155436.905000", "155437.515000", "155438.125000", "155438.735000", "155439.345000", "155439.955000", "155440.565000", "155441.175000", "155441.785000", "155442.395000", "155443.005000", "155443.615000", "155444.225000", "155444.835000", "155445.445000", "155446.055000", "155446.665000", "155447.275000", "155447.885000", "155448.495000", "155449.105000", "155449.715000", "155450.325000", "155450.935000", "155451.545000", "155452.155000", "155452.765000", "155453.375000", "155453.985000", "155454.595000", "155455.205000", "155455.815000", "155456.425000", "155457.035000", "155457.645000", "155458.255000", "155458.865000", "155459.475000", "155500.085000", "155500.695000", "155501.305000", "155501.915000", "155502.525000", "155503.135000", "155503.745000", "155504.355000", "155504.965000", "155505.575000", "155506.185000", "155506.795000", "155507.405000", "155508.015000", "155508.625000", "155509.235000", "155509.845000", "155510.455000", "155511.065000", "155511.675000", "155512.285000", "155512.895000", "155513.505000", "155514.115000", "155514.725000", "155515.335000", "155515.945000", "155516.555000", "155517.165000", "155517.775000", "155518.385000", "155518.995000", "155519.605000", "155520.215000", "155520.825000", "155521.435000", "155522.045000", "155522.655000", "155523.265000", "155523.875000", "155524.485000", "155525.095000", "155525.705000", "155526.315000", "155526.925000", "155527.535000", "155528.145000", "155528.755000", "155529.365000", "155529.975000", "155530.585000", "155531.195000", "155531.805000", "155532.415000", "155533.025000", "155533.635000", "155534.245000", "155534.855000", "155535.465000", "155536.075000", "155536.685000", "155537.295000", "155537.905000", "155538.515000", "155539.125000", "155539.735000", "155540.345000", "155540.955000", "155541.565000", "155542.175000", "155542.785000", "155543.395000", "155544.005000", "155544.615000", "155545.225000", "155545.835000", "155546.445000", "155547.055000", "155547.665000", "155548.275000", "155548.885000", "155549.495000", "155550.105000", "155550.715000", "155551.325000", "155551.935000", "155552.545000", "155553.155000", "155553.765000", "155554.375000", "155554.985000", "155555.595000", "155556.205000", "155556.815000", "155557.425000", "155558.035000", "155558.645000", "155559.255000", "155559.865000", "155600.475000", "155601.085000", "155601.695000", "155602.305000", "155602.915000", "155603.525000", "155604.135000", "155604.745000", "155605.355000", "155605.965000", "155606.575000", "155607.185000"], "ContentTime": ["155113.865000", "155113.868000", "155113.870000", "155113.876000", "155113.879000", "155113.881000", "155113.884000", "155113.886000", "155113.889000", "155113.891000", "155113.894000", "155113.903000", "155113.905000", "155113.908000", "155113.910000", "155113.912000", "155113.915000", "155113.917000", "155113.920000", "155113.922000", "155113.932000", "155113.934000", "155113.937000", "155113.939000", "155113.942000", "155113.944000", "155113.946000", "155133.860000", "155133.863000", "155133.865000", "155133.868000", "155133.870000", "155133.872000", "155133.875000", "155133.877000", "155133.880000", "155133.882000", "155133.884000", "155133.887000", "155133.889000", "155133.892000", "155133.894000", "155133.896000", "155133.899000", "155133.901000", "155133.909000", "155133.912000", "155133.914000", "155133.917000", "155133.919000", "155133.921000", "155133.924000", "155133.926000", "155133.928000", "155133.931000", "155133.933000", "155133.936000", "155133.939000", "155133.942000", "155133.944000", "155153.860000", "155153.863000", "155153.865000", "155153.867000", "155153.870000", "155153.872000", "155153.874000", "155153.877000", "155153.879000", "155153.881000", "155153.884000", "155153.886000", "155153.889000", "155153.891000", "155153.893000", "155153.896000", "155153.898000", "155153.900000", "155153.903000", "155153.905000", "155153.908000", "155153.910000", "155153.912000", "155153.915000", "155153.917000", "155153.919000", "155153.922000", "155153.924000", "155153.926000", "155153.929000", "155153.931000", "155153.934000", "155153.936000", "155213.860000", "155213.863000", "155213.865000", "155213.868000", "155213.870000", "155213.873000", "155213.875000", "155213.877000", "155213.880000", "155213.882000", "155213.884000", "155213.887000", "155213.889000", "155213.892000", "155213.894000", "155213.896000", "155213.899000", "155213.901000", "155213.904000", "155213.906000", "155213.909000", "155213.911000", "155213.913000", "155213.916000", "155213.918000", "155213.921000", "155213.923000", "155213.926000", "155213.928000", "155213.930000", "155213.933000", "155213.935000", "155233.860000", "155233.863000", "155233.865000", "155233.868000", "155233.870000", "155233.872000", "155233.875000", "155233.877000", "155233.880000", "155233.882000", "155233.884000", "155233.887000", "155233.890000", "155233.892000", "155233.895000", "155233.897000", "155233.900000", "155233.902000", "155233.904000", "155233.907000", "155233.909000", "155233.911000", "155233.914000", "155233.916000", "155233.919000", "155233.921000", "155233.923000", "155233.926000", "155233.928000", "155233.930000", "155233.933000", "155233.935000", "155233.938000", "155253.860000", "155253.863000", "155253.865000", "155253.868000", "155253.870000", "155253.873000", "155253.875000", "155253.877000", "155253.880000", "155253.882000", "155253.884000", "155253.887000", "155253.889000", "155253.891000", "155253.894000", "155253.896000", "155253.898000", "155253.901000", "155253.903000", "155253.906000", "155253.908000", "155253.910000", "155253.913000", "155253.915000", "155253.918000", "155253.920000", "155253.922000", "155253.925000", "155253.927000", "155253.929000", "155253.932000", "155253.934000", "155253.937000", "155313.860000", "155313.863000", "155313.865000", "155313.868000", "155313.870000", "155313.873000", "155313.875000", "155313.877000", "155313.880000", "155313.882000", "155313.885000", "155313.887000", "155313.889000", "155313.892000", "155313.894000", "155313.897000", "155313.899000", "155313.901000", "155313.904000", "155313.906000", "155313.909000", "155313.911000", "155313.913000", "155313.916000", "155313.918000", "155313.921000", "155313.923000", "155313.925000", "155313.928000", "155313.930000", "155313.932000", "155313.935000", "155313.937000", "155333.859000", "155333.862000", "155333.864000", "155333.867000", "155333.869000", "155333.871000", "155333.874000", "155333.876000", "155333.879000", "155333.881000", "155333.883000", "155333.886000", "155333.889000", "155333.891000", "155333.893000", "155333.896000", "155333.898000", "155333.901000", "155333.903000", "155333.906000", "155333.908000", "155333.911000", "155333.913000", "155333.916000", "155333.918000", "155333.920000", "155333.923000", "155333.925000", "155333.927000", "155333.930000", "155333.932000", "155333.959000", "155333.961000", "155353.860000", "155353.863000", "155353.865000", "155353.868000", "155353.870000", "155353.873000", "155353.875000", "155353.878000", "155353.880000", "155353.882000", "155353.885000", "155353.887000", "155353.890000", "155353.892000", "155353.894000", "155353.897000", "155353.899000", "155353.901000", "155353.904000", "155353.906000", "155353.909000", "155353.911000", "155353.914000", "155353.916000", "155353.918000", "155353.921000", "155353.923000", "155353.926000", "155353.928000", "155353.931000", "155353.933000", "155353.935000", "155413.860000", "155413.863000", "155413.865000", "155413.868000", "155413.870000", "155413.873000", "155413.875000", "155413.878000", "155413.880000", "155413.883000", "155413.885000", "155413.887000", "155413.890000", "155413.892000", "155413.895000", "155413.897000", "155413.900000", "155413.902000", "155413.904000", "155413.907000", "155413.909000", "155413.912000", "155413.914000", "155413.916000", "155413.919000", "155413.922000", "155413.924000", "155413.927000", "155413.930000", "155413.932000", "155413.934000", "155413.937000", "155413.940000", "155433.860000", "155433.863000", "155433.865000", "155433.868000", "155433.870000", "155433.873000", "155433.875000", "155433.877000", "155433.880000", "155433.882000", "155433.885000", "155433.887000", "155433.889000", "155433.892000", "155433.894000", "155433.897000", "155433.899000", "155433.902000", "155433.904000", "155433.906000", "155433.909000", "155433.911000", "155433.913000", "155433.916000", "155433.918000", "155433.920000", "155433.923000", "155433.925000", "155433.928000", "155433.930000", "155433.932000", "155433.935000", "155433.937000", "155453.860000", "155453.863000", "155453.866000", "155453.869000", "155453.871000", "155453.894000", "155453.896000", "155453.899000", "155453.901000", "155453.903000", "155453.906000", "155453.908000", "155453.911000", "155453.913000", "155453.916000", "155453.918000", "155453.921000", "155453.923000", "155453.925000", "155453.928000", "155453.930000", "155453.933000", "155453.935000", "155453.937000", "155453.940000", "155453.942000", "155453.945000", "155453.948000", "155453.950000", "155453.952000", "155453.955000", "155453.957000", "155453.960000", "155513.860000", "155513.863000", "155513.865000", "155513.868000", "155513.871000", "155513.873000", "155513.876000", "155513.878000", "155513.880000", "155513.883000", "155513.885000", "155513.888000", "155513.890000", "155513.892000", "155513.895000", "155513.897000", "155513.899000", "155513.902000", "155513.904000", "155513.907000", "155513.909000", "155513.911000", "155513.914000", "155513.916000", "155513.919000", "155513.921000", "155513.924000", "155513.926000", "155513.928000", "155513.931000", "155513.933000", "155513.936000", "155533.860000", "155533.863000", "155533.865000", "155533.868000", "155533.870000", "155533.873000", "155533.875000", "155533.877000", "155533.880000", "155533.882000", "155533.885000", "155533.887000", "155533.890000", "155533.892000", "155533.895000", "155533.897000", "155533.899000", "155533.902000", "155533.904000", "155533.907000", "155533.909000", "155533.911000", "155533.914000", "155533.916000", "155533.919000", "155533.921000", "155533.924000", "155533.926000", "155533.929000", "155533.931000", "155533.933000", "155533.936000", "155533.938000", "155553.859000", "155553.862000", "155553.864000", "155553.867000", "155553.869000", "155553.872000", "155553.874000", "155553.876000", "155553.879000", "155553.881000", "155553.883000", "155553.886000", "155553.888000", "155553.891000", "155553.893000", "155553.895000", "155553.898000", "155553.900000", "155553.903000", "155553.905000", "155553.907000", "155553.910000", "155553.912000", "155553.915000", "155553.917000", "155553.919000", "155553.922000", "155553.924000", "155553.927000", "155553.929000", "155553.932000", "155553.934000", "155553.937000", "155608.119000", "155608.121000", "155608.124000", "155608.126000", "155608.129000", "155608.131000", "155608.134000", "155608.136000", "155608.138000", "155608.141000", "155608.143000", "155608.146000", "155608.148000", "155608.151000", "155608.153000", "155608.155000", "155608.158000", "155608.160000", "155608.163000", "155608.165000", "155608.167000", "155608.170000", "155608.172000", "155608.175000"], "InstanceCreationTime": ["155113.865000", "155113.868000", "155113.870000", "155113.876000", "155113.879000", "155113.881000", "155113.884000", "155113.886000", "155113.889000", "155113.891000", "155113.894000", "155113.903000", "155113.905000", "155113.908000", "155113.910000", "155113.912000", "155113.915000", "155113.917000", "155113.920000", "155113.922000", "155113.932000", "155113.934000", "155113.937000", "155113.939000", "155113.942000", "155113.944000", "155113.946000", "155133.860000", "155133.863000", "155133.865000", "155133.868000", "155133.870000", "155133.872000", "155133.875000", "155133.877000", "155133.880000", "155133.882000", "155133.884000", "155133.887000", "155133.889000", "155133.892000", "155133.894000", "155133.896000", "155133.899000", "155133.901000", "155133.909000", "155133.912000", "155133.914000", "155133.917000", "155133.919000", "155133.921000", "155133.924000", "155133.926000", "155133.928000", "155133.931000", "155133.933000", "155133.936000", "155133.939000", "155133.942000", "155133.944000", "155153.860000", "155153.863000", "155153.865000", "155153.867000", "155153.870000", "155153.872000", "155153.874000", "155153.877000", "155153.879000", "155153.881000", "155153.884000", "155153.886000", "155153.889000", "155153.891000", "155153.893000", "155153.896000", "155153.898000", "155153.900000", "155153.903000", "155153.905000", "155153.908000", "155153.910000", "155153.912000", "155153.915000", "155153.917000", "155153.919000", "155153.922000", "155153.924000", "155153.926000", "155153.929000", "155153.931000", "155153.934000", "155153.936000", "155213.860000", "155213.863000", "155213.865000", "155213.868000", "155213.870000", "155213.873000", "155213.875000", "155213.877000", "155213.880000", "155213.882000", "155213.884000", "155213.887000", "155213.889000", "155213.892000", "155213.894000", "155213.896000", "155213.899000", "155213.901000", "155213.904000", "155213.906000", "155213.909000", "155213.911000", "155213.913000", "155213.916000", "155213.918000", "155213.921000", "155213.923000", "155213.926000", "155213.928000", "155213.930000", "155213.933000", "155213.935000", "155233.860000", "155233.863000", "155233.865000", "155233.868000", "155233.870000", "155233.872000", "155233.875000", "155233.877000", "155233.880000", "155233.882000", "155233.884000", "155233.887000", "155233.890000", "155233.892000", "155233.895000", "155233.897000", "155233.900000", "155233.902000", "155233.904000", "155233.907000", "155233.909000", "155233.911000", "155233.914000", "155233.916000", "155233.919000", "155233.921000", "155233.923000", "155233.926000", "155233.928000", "155233.930000", "155233.933000", "155233.935000", "155233.938000", "155253.860000", "155253.863000", "155253.865000", "155253.868000", "155253.870000", "155253.873000", "155253.875000", "155253.877000", "155253.880000", "155253.882000", "155253.884000", "155253.887000", "155253.889000", "155253.891000", "155253.894000", "155253.896000", "155253.898000", "155253.901000", "155253.903000", "155253.906000", "155253.908000", "155253.910000", "155253.913000", "155253.915000", "155253.918000", "155253.920000", "155253.922000", "155253.925000", "155253.927000", "155253.929000", "155253.932000", "155253.934000", "155253.937000", "155313.860000", "155313.863000", "155313.865000", "155313.868000", "155313.870000", "155313.873000", "155313.875000", "155313.877000", "155313.880000", "155313.882000", "155313.885000", "155313.887000", "155313.889000", "155313.892000", "155313.894000", "155313.897000", "155313.899000", "155313.901000", "155313.904000", "155313.906000", "155313.909000", "155313.911000", "155313.913000", "155313.916000", "155313.918000", "155313.921000", "155313.923000", "155313.925000", "155313.928000", "155313.930000", "155313.932000", "155313.935000", "155313.937000", "155333.859000", "155333.862000", "155333.864000", "155333.867000", "155333.869000", "155333.871000", "155333.874000", "155333.876000", "155333.879000", "155333.881000", "155333.883000", "155333.886000", "155333.889000", "155333.891000", "155333.893000", "155333.896000", "155333.898000", "155333.901000", "155333.903000", "155333.906000", "155333.908000", "155333.911000", "155333.913000", "155333.916000", "155333.918000", "155333.920000", "155333.923000", "155333.925000", "155333.927000", "155333.930000", "155333.932000", "155333.959000", "155333.961000", "155353.860000", "155353.863000", "155353.865000", "155353.868000", "155353.870000", "155353.873000", "155353.875000", "155353.878000", "155353.880000", "155353.882000", "155353.885000", "155353.887000", "155353.890000", "155353.892000", "155353.894000", "155353.897000", "155353.899000", "155353.901000", "155353.904000", "155353.906000", "155353.909000", "155353.911000", "155353.914000", "155353.916000", "155353.918000", "155353.921000", "155353.923000", "155353.926000", "155353.928000", "155353.931000", "155353.933000", "155353.935000", "155413.860000", "155413.863000", "155413.865000", "155413.868000", "155413.870000", "155413.873000", "155413.875000", "155413.878000", "155413.880000", "155413.883000", "155413.885000", "155413.887000", "155413.890000", "155413.892000", "155413.895000", "155413.897000", "155413.900000", "155413.902000", "155413.904000", "155413.907000", "155413.909000", "155413.912000", "155413.914000", "155413.916000", "155413.919000", "155413.922000", "155413.924000", "155413.927000", "155413.930000", "155413.932000", "155413.9