{"AcquisitionMatrixPE": 64, "AcquisitionNumber": 1, "AcquisitionTime": "15:21:59.040000", "BandwidthPerPixelPhaseEncode": 28.935, "BaseResolution": 64, "BodyPartExamined": "BRAIN", "CoilCombinationMethod": "Sum of Squares", "ConsistencyInfo": "N4_VE11E_LATEST_20181129", "ConversionSoftware": "dcm2niix", "ConversionSoftwareVersion": "v1.0.20230411", "DerivedVendorReportedEchoSpacing": 0.000540003, "DeviceSerialNumber": "166182", "DwellTime": 3.4e-06, "EchoTime": 0.032, "EchoTrainLength": 64, "EffectiveEchoSpacing": 0.000540003, "FlipAngle": 40, "HeudiconvVersion": "0.13.1", "ImageOrientationPatientDICOM": [0.999128, 0.0297721, -0.029271, -0.0348904, 0.980437, -0.193715], "ImageOrientationText": "Tra>Cor(-11.2)>Sag(-1.3)", "ImageType": ["ORIGINAL", "PRIMARY", "M", "ND", "NORM", "MOSAIC"], "ImagingFrequency": 123.256713, "InPlanePhaseEncodingDirectionDICOM": "COL", "InstitutionAddress": "PEARSE STREET .,City,District,IE,D2", "InstitutionName": "TCIN", "InstitutionalDepartmentName": "MRI", "MRAcquisitionType": "2D", "MagneticFieldStrength": 3, "Manufacturer": "Siemens", "ManufacturersModelName": "Prisma", "Modality": "MR", "MultibandAccelerationFactor": 4, "NonlinearGradientCorrection": false, "PartialFourier": 1, "PatientPosition": "HFS", "PercentPhaseFOV": 100, "PercentSampling": 100, "PhaseEncodingDirection": "j-", "PhaseEncodingSteps": 64, "PhaseResolution": 1, "PixelBandwidth": 2300, "ProcedureStepDescription": "Rhodri^Head BOLD", "ProtocolName": "cmrr_mbep2d_Pictures_AP_RDS", "PulseSequenceDetails": "%SiemensSeq%\\ep2d_bold", "ReceiveCoilActiveElements": "HC2,4,6,7;SC", "ReceiveCoilName": "HeadNeck_64", "ReconMatrixPE": 64, "RefLinesPE": 12, "RepetitionTime": 0.61, "SAR": 0.375547, "ScanOptions": "FS", "ScanningSequence": "EP", "SequenceName": "*epfid2d1_64", "SequenceVariant": "SK", "SeriesDescription": "cmrr_mbep2d_Pictures_AP_RDS", "SeriesNumber": 5, "ShimSetting": [-3699, -7483, 3855, 823, -139, 611, 230, -154], "SliceThickness": 3, "SliceTiming": [0.2625, 0, 0.3275, 0.065, 0.3925, 0.1325, 0.46, 0.1975, 0.525, 0.2625, 0, 0.3275, 0.065, 0.3925, 0.1325, 0.46, 0.1975, 0.525, 0.2625, 0, 0.3275, 0.065, 0.3925, 0.1325, 0.46, 0.1975, 0.525, 0.2625, 0, 0.3275, 0.065, 0.3925, 0.1325, 0.46, 0.1975, 0.525], "SoftwareVersions": "syngo MR E11", "SpacingBetweenSlices": 3.3, "StationName": "AWP166182", "TaskName": "pictures", "TotalReadoutTime": 0.0340202, "TxRefAmp": 251.029, "dcmmeta_affine": [[-2.9973840713500977, -0.10467107594013214, -0.07567249983549118, 104.04573822021484], [-0.08931643515825272, 2.941312074661255, -0.6420707106590271, -77.75182342529297], [-0.08781293034553528, 0.5811435580253601, 3.2360498905181885, -110.59356689453125], [0.0, 0.0, 0.0, 1.0]], "dcmmeta_reorient_transform": [[0.0, -1.0, 0.0, 63.0], [1.0, 0.0, 0.0, 0.0], [0.0, 0.0, 1.0, 0.0], [0.0, 0.0, 0.0, 1.0]], "dcmmeta_shape": [64, 64, 36, 510], "dcmmeta_slice_dim": 2, "dcmmeta_version": 0.6, "global": {"const": {"AcquisitionMatrix": [64, 0, 0, 64], "AngioFlag": "N", "BitsAllocated": 16, "BitsStored": 12, "BodyPartExamined": "BRAIN", "Columns": 384, "EchoNumbers": 1, "EchoTime": 32.0, "EchoTrainLength": 64, "FlipAngle": 40.0, "HighBit": 11, "ImageOrientationPatient": [0.99912803452261, 0.02977214492886, -0.0292709756809, -0.0348903581229, 0.98043732632528, -0.1937145117388], "ImagePositionPatient": [-560.28554373038, -592.45138088336, 33.051510565755], "ImageType": ["ORIGINAL", "PRIMARY", "M", "ND", "NORM", "MOSAIC"], "ImagedNucleus": "1H", "ImagingFrequency": 123.256713, "InPlanePhaseEncodingDirection": "COL", "MRAcquisitionType": "2D", "MagneticFieldStrength": 3.0, "Manufacturer": "SIEMENS", "ManufacturerModelName": "Prisma", "Modality": "MR", "NumberOfAverages": 1.0, "NumberOfPhaseEncodingSteps": 64, "PercentPhaseFieldOfView": 100.0, "PercentSampling": 100.0, "PerformedProcedureStepStartTime": "151926.595000", "PhotometricInterpretation": "MONOCHROME2", "PixelBandwidth": 2300.0, "PixelRepresentation": 0, "PixelSpacing": [3.0, 3.0], "ProtocolName": "cmrr_mbep2d_Pictures_AP_RDS", "RepetitionTime": 610.0, "Rows": 384, "SAR": 0.37554678173605, "SamplesPerPixel": 1, "ScanOptions": "FS", "ScanningSequence": "EP", "SequenceName": "*epfid2d1_64", "SequenceVariant": "SK", "SeriesDescription": "cmrr_mbep2d_Pictures_AP_RDS", "SeriesNumber": 5, "SeriesTime": "152214.012000", "SliceLocation": -95.708343778623, "SliceThickness": 3.0, "SmallestImagePixelValue": 0, "SoftwareVersions": "syngo MR E11", "SpacingBetweenSlices": 3.3000000377794, "SpecificCharacterSet": "ISO_IR 100", "StudyID": "2", "StudyTime": "151926.535000", "TransmitCoilName": "Body", "VariableFlipAngleFlag": "N", "WindowCenterWidthExplanation": "Algo1"}, "slices": {}}, "time": {"samples": {"AcquisitionNumber": [1, 2, 3, 4, 5, 6, 7, 8, 9, 10, 11, 12, 13, 14, 15, 16, 17, 18, 19, 20, 21, 22, 23, 24, 25, 26, 27, 28, 29, 30, 31, 32, 33, 34, 35, 36, 37, 38, 39, 40, 41, 42, 43, 44, 45, 46, 47, 48, 49, 50, 51, 52, 53, 54, 55, 56, 57, 58, 59, 60, 61, 62, 63, 64, 65, 66, 67, 68, 69, 70, 71, 72, 73, 74, 75, 76, 77, 78, 79, 80, 81, 82, 83, 84, 85, 86, 87, 88, 89, 90, 91, 92, 93, 94, 95, 96, 97, 98, 99, 100, 101, 102, 103, 104, 105, 106, 107, 108, 109, 110, 111, 112, 113, 114, 115, 116, 117, 118, 119, 120, 121, 122, 123, 124, 125, 126, 127, 128, 129, 130, 131, 132, 133, 134, 135, 136, 137, 138, 139, 140, 141, 142, 143, 144, 145, 146, 147, 148, 149, 150, 151, 152, 153, 154, 155, 156, 157, 158, 159, 160, 161, 162, 163, 164, 165, 166, 167, 168, 169, 170, 171, 172, 173, 174, 175, 176, 177, 178, 179, 180, 181, 182, 183, 184, 185, 186, 187, 188, 189, 190, 191, 192, 193, 194, 195, 196, 197, 198, 199, 200, 201, 202, 203, 204, 205, 206, 207, 208, 209, 210, 211, 212, 213, 214, 215, 216, 217, 218, 219, 220, 221, 222, 223, 224, 225, 226, 227, 228, 229, 230, 231, 232, 233, 234, 235, 236, 237, 238, 239, 240, 241, 242, 243, 244, 245, 246, 247, 248, 249, 250, 251, 252, 253, 254, 255, 256, 257, 258, 259, 260, 261, 262, 263, 264, 265, 266, 267, 268, 269, 270, 271, 272, 273, 274, 275, 276, 277, 278, 279, 280, 281, 282, 283, 284, 285, 286, 287, 288, 289, 290, 291, 292, 293, 294, 295, 296, 297, 298, 299, 300, 301, 302, 303, 304, 305, 306, 307, 308, 309, 310, 311, 312, 313, 314, 315, 316, 317, 318, 319, 320, 321, 322, 323, 324, 325, 326, 327, 328, 329, 330, 331, 332, 333, 334, 335, 336, 337, 338, 339, 340, 341, 342, 343, 344, 345, 346, 347, 348, 349, 350, 351, 352, 353, 354, 355, 356, 357, 358, 359, 360, 361, 362, 363, 364, 365, 366, 367, 368, 369, 370, 371, 372, 373, 374, 375, 376, 377, 378, 379, 380, 381, 382, 383, 384, 385, 386, 387, 388, 389, 390, 391, 392, 393, 394, 395, 396, 397, 398, 399, 400, 401, 402, 403, 404, 405, 406, 407, 408, 409, 410, 411, 412, 413, 414, 415, 416, 417, 418, 419, 420, 421, 422, 423, 424, 425, 426, 427, 428, 429, 430, 431, 432, 433, 434, 435, 436, 437, 438, 439, 440, 441, 442, 443, 444, 445, 446, 447, 448, 449, 450, 451, 452, 453, 454, 455, 456, 457, 458, 459, 460, 461, 462, 463, 464, 465, 466, 467, 468, 469, 470, 471, 472, 473, 474, 475, 476, 477, 478, 479, 480, 481, 482, 483, 484, 485, 486, 487, 488, 489, 490, 491, 492, 493, 494, 495, 496, 497, 498, 499, 500, 501, 502, 503, 504, 505, 506, 507, 508, 509, 510], "AcquisitionTime": ["152159.040000", "152159.650000", "152200.260000", "152200.870000", "152201.480000", "152202.090000", "152202.700000", "152203.310000", "152203.920000", "152204.530000", "152205.140000", "152205.750000", "152206.360000", "152206.970000", "152207.580000", "152208.190000", "152208.800000", "152209.410000", "152210.020000", "152210.630000", "152211.240000", "152211.850000", "152212.460000", "152213.070000", "152213.680000", "152214.290000", "152214.900000", "152215.510000", "152216.120000", "152216.730000", "152217.340000", "152217.950000", "152218.560000", "152219.170000", "152219.780000", "152220.390000", "152221.000000", "152221.610000", "152222.220000", "152222.830000", "152223.440000", "152224.050000", "152224.660000", "152225.270000", "152225.880000", "152226.490000", "152227.100000", "152227.710000", "152228.320000", "152228.930000", "152229.540000", "152230.150000", "152230.760000", "152231.370000", "152231.980000", "152232.590000", "152233.200000", "152233.810000", "152234.420000", "152235.030000", "152235.640000", "152236.250000", "152236.860000", "152237.470000", "152238.080000", "152238.690000", "152239.300000", "152239.910000", "152240.520000", "152241.130000", "152241.740000", "152242.350000", "152242.960000", "152243.570000", "152244.180000", "152244.790000", "152245.400000", "152246.010000", "152246.620000", "152247.230000", "152247.840000", "152248.450000", "152249.060000", "152249.670000", "152250.280000", "152250.890000", "152251.500000", "152252.110000", "152252.720000", "152253.330000", "152253.940000", "152254.550000", "152255.160000", "152255.770000", "152256.380000", "152256.990000", "152257.600000", "152258.210000", "152258.820000", "152259.430000", "152300.040000", "152300.650000", "152301.260000", "152301.870000", "152302.480000", "152303.090000", "152303.700000", "152304.310000", "152304.920000", "152305.530000", "152306.140000", "152306.750000", "152307.360000", "152307.970000", "152308.580000", "152309.190000", "152309.800000", "152310.410000", "152311.020000", "152311.630000", "152312.240000", "152312.850000", "152313.460000", "152314.070000", "152314.680000", "152315.290000", "152315.900000", "152316.510000", "152317.120000", "152317.730000", "152318.340000", "152318.950000", "152319.560000", "152320.170000", "152320.780000", "152321.390000", "152322.000000", "152322.610000", "152323.220000", "152323.830000", "152324.440000", "152325.050000", "152325.660000", "152326.270000", "152326.880000", "152327.490000", "152328.100000", "152328.710000", "152329.320000", "152329.930000", "152330.540000", "152331.150000", "152331.760000", "152332.370000", "152332.980000", "152333.590000", "152334.200000", "152334.810000", "152335.420000", "152336.030000", "152336.640000", "152337.250000", "152337.860000", "152338.470000", "152339.080000", "152339.690000", "152340.300000", "152340.910000", "152341.520000", "152342.130000", "152342.740000", "152343.350000", "152343.960000", "152344.570000", "152345.180000", "152345.790000", "152346.400000", "152347.010000", "152347.620000", "152348.230000", "152348.840000", "152349.450000", "152350.060000", "152350.670000", "152351.280000", "152351.890000", "152352.500000", "152353.110000", "152353.720000", "152354.330000", "152354.940000", "152355.550000", "152356.160000", "152356.770000", "152357.380000", "152357.990000", "152358.600000", "152359.210000", "152359.820000", "152400.430000", "152401.040000", "152401.650000", "152402.260000", "152402.870000", "152403.480000", "152404.090000", "152404.700000", "152405.310000", "152405.920000", "152406.530000", "152407.140000", "152407.750000", "152408.360000", "152408.970000", "152409.580000", "152410.190000", "152410.800000", "152411.410000", "152412.020000", "152412.630000", "152413.240000", "152413.850000", "152414.460000", "152415.070000", "152415.680000", "152416.290000", "152416.900000", "152417.510000", "152418.120000", "152418.730000", "152419.340000", "152419.950000", "152420.560000", "152421.170000", "152421.780000", "152422.390000", "152423.000000", "152423.610000", "152424.220000", "152424.830000", "152425.440000", "152426.050000", "152426.660000", "152427.270000", "152427.880000", "152428.490000", "152429.100000", "152429.710000", "152430.320000", "152430.930000", "152431.540000", "152432.150000", "152432.760000", "152433.370000", "152433.980000", "152434.590000", "152435.200000", "152435.810000", "152436.420000", "152437.030000", "152437.640000", "152438.250000", "152438.860000", "152439.470000", "152440.080000", "152440.690000", "152441.300000", "152441.910000", "152442.520000", "152443.130000", "152443.740000", "152444.350000", "152444.960000", "152445.570000", "152446.180000", "152446.790000", "152447.400000", "152448.010000", "152448.620000", "152449.230000", "152449.840000", "152450.450000", "152451.060000", "152451.670000", "152452.280000", "152452.890000", "152453.500000", "152454.110000", "152454.720000", "152455.330000", "152455.940000", "152456.550000", "152457.160000", "152457.770000", "152458.380000", "152458.990000", "152459.600000", "152500.210000", "152500.820000", "152501.430000", "152502.040000", "152502.650000", "152503.260000", "152503.870000", "152504.480000", "152505.090000", "152505.700000", "152506.310000", "152506.920000", "152507.530000", "152508.140000", "152508.750000", "152509.360000", "152509.970000", "152510.580000", "152511.190000", "152511.800000", "152512.410000", "152513.020000", "152513.630000", "152514.240000", "152514.850000", "152515.460000", "152516.070000", "152516.680000", "152517.290000", "152517.900000", "152518.510000", "152519.120000", "152519.730000", "152520.340000", "152520.950000", "152521.560000", "152522.170000", "152522.780000", "152523.390000", "152524.000000", "152524.610000", "152525.220000", "152525.830000", "152526.440000", "152527.050000", "152527.660000", "152528.270000", "152528.880000", "152529.490000", "152530.100000", "152530.710000", "152531.320000", "152531.930000", "152532.540000", "152533.150000", "152533.760000", "152534.370000", "152534.980000", "152535.590000", "152536.200000", "152536.810000", "152537.420000", "152538.030000", "152538.640000", "152539.250000", "152539.860000", "152540.470000", "152541.080000", "152541.690000", "152542.300000", "152542.910000", "152543.520000", "152544.130000", "152544.740000", "152545.350000", "152545.960000", "152546.570000", "152547.180000", "152547.790000", "152548.400000", "152549.010000", "152549.620000", "152550.230000", "152550.840000", "152551.450000", "152552.060000", "152552.670000", "152553.280000", "152553.890000", "152554.500000", "152555.110000", "152555.720000", "152556.330000", "152556.940000", "152557.550000", "152558.160000", "152558.770000", "152559.380000", "152559.990000", "152600.600000", "152601.210000", "152601.820000", "152602.430000", "152603.040000", "152603.650000", "152604.260000", "152604.870000", "152605.480000", "152606.090000", "152606.700000", "152607.310000", "152607.920000", "152608.530000", "152609.140000", "152609.750000", "152610.360000", "152610.970000", "152611.580000", "152612.190000", "152612.800000", "152613.410000", "152614.020000", "152614.630000", "152615.240000", "152615.850000", "152616.460000", "152617.070000", "152617.680000", "152618.290000", "152618.900000", "152619.510000", "152620.120000", "152620.730000", "152621.340000", "152621.950000", "152622.560000", "152623.170000", "152623.780000", "152624.390000", "152625.000000", "152625.610000", "152626.220000", "152626.830000", "152627.440000", "152628.050000", "152628.660000", "152629.270000", "152629.880000", "152630.490000", "152631.100000", "152631.710000", "152632.320000", "152632.930000", "152633.540000", "152634.150000", "152634.760000", "152635.370000", "152635.980000", "152636.590000", "152637.200000", "152637.810000", "152638.420000", "152639.030000", "152639.640000", "152640.250000", "152640.860000", "152641.470000", "152642.080000", "152642.690000", "152643.300000", "152643.910000", "152644.520000", "152645.130000", "152645.740000", "152646.350000", "152646.960000", "152647.570000", "152648.180000", "152648.790000", "152649.400000", "152650.010000", "152650.620000", "152651.230000", "152651.840000", "152652.450000", "152653.060000", "152653.670000", "152654.280000", "152654.890000", "152655.500000", "152656.110000", "152656.720000", "152657.330000", "152657.940000", "152658.550000", "152659.160000", "152659.770000", "152700.380000", "152700.990000", "152701.600000", "152702.210000", "152702.820000", "152703.430000", "152704.040000", "152704.650000", "152705.260000", "152705.870000", "152706.480000", "152707.090000", "152707.700000", "152708.310000", "152708.920000", "152709.530000"], "ContentTime": ["152214.039000", "152214.043000", "152214.045000", "152214.047000", "152214.050000", "152214.053000", "152214.055000", "152214.057000", "152214.060000", "152214.062000", "152214.065000", "152214.067000", "152214.070000", "152214.072000", "152214.074000", "152214.083000", "152214.086000", "152214.088000", "152214.091000", "152214.096000", "152214.099000", "152214.101000", "152214.103000", "152214.106000", "152234.010000", "152234.013000", "152234.043000", "152234.045000", "152234.048000", "152234.050000", "152234.053000", "152234.055000", "152234.057000", "152234.060000", "152234.062000", "152234.066000", "152234.069000", "152234.071000", "152234.074000", "152234.076000", "152234.078000", "152234.081000", "152234.083000", "152234.086000", "152234.088000", "152234.091000", "152234.093000", "152234.095000", "152234.098000", "152234.100000", "152234.102000", "152234.105000", "152234.107000", "152234.110000", "152234.112000", "152234.115000", "152234.117000", "152254.010000", "152254.014000", "152254.017000", "152254.019000", "152254.022000", "152254.024000", "152254.034000", "152254.036000", "152254.038000", "152254.041000", "152254.043000", "152254.046000", "152254.048000", "152254.050000", "152254.053000", "152254.055000", "152254.058000", "152254.060000", "152254.062000", "152254.065000", "152254.067000", "152254.070000", "152254.072000", "152254.074000", "152254.077000", "152254.079000", "152254.082000", "152254.084000", "152254.086000", "152254.089000", "152254.091000", "152254.093000", "152254.096000", "152314.011000", "152314.014000", "152314.017000", "152314.019000", "152314.023000", "152314.026000", "152314.028000", "152314.031000", "152314.033000", "152314.036000", "152314.038000", "152314.040000", "152314.043000", "152314.045000", "152314.048000", "152314.050000", "152314.052000", "152314.055000", "152314.057000", "152314.060000", "152314.062000", "152314.065000", "152314.067000", "152314.070000", "152314.072000", "152314.074000", "152314.077000", "152314.079000", "152314.082000", "152314.084000", "152314.086000", "152314.089000", "152334.011000", "152334.014000", "152334.016000", "152334.019000", "152334.021000", "152334.024000", "152334.026000", "152334.028000", "152334.031000", "152334.033000", "152334.036000", "152334.038000", "152334.041000", "152334.043000", "152334.046000", "152334.048000", "152334.051000", "152334.053000", "152334.056000", "152334.058000", "152334.060000", "152334.063000", "152334.065000", "152334.068000", "152334.070000", "152334.073000", "152334.075000", "152334.078000", "152334.080000", "152334.083000", "152334.085000", "152334.087000", "152334.090000", "152354.011000", "152354.014000", "152354.016000", "152354.019000", "152354.021000", "152354.024000", "152354.026000", "152354.028000", "152354.031000", "152354.033000", "152354.035000", "152354.038000", "152354.040000", "152354.043000", "152354.051000", "152354.053000", "152354.056000", "152354.058000", "152354.061000", "152354.063000", "152354.066000", "152354.068000", "152354.070000", "152354.073000", "152354.075000", "152354.078000", "152354.080000", "152354.083000", "152354.085000", "152354.087000", "152354.090000", "152354.092000", "152354.095000", "152414.010000", "152414.013000", "152414.015000", "152414.018000", "152414.020000", "152414.023000", "152414.025000", "152414.028000", "152414.030000", "152414.032000", "152414.035000", "152414.037000", "152414.040000", "152414.042000", "152414.045000", "152414.047000", "152414.050000", "152414.052000", "152414.054000", "152414.057000", "152414.059000", "152414.062000", "152414.064000", "152414.067000", "152414.069000", "152414.072000", "152414.074000", "152414.076000", "152414.079000", "152414.081000", "152414.084000", "152414.086000", "152414.088000", "152434.010000", "152434.013000", "152434.015000", "152434.018000", "152434.020000", "152434.023000", "152434.025000", "152434.028000", "152434.030000", "152434.032000", "152434.035000", "152434.037000", "152434.040000", "152434.042000", "152434.045000", "152434.047000", "152434.049000", "152434.052000", "152434.054000", "152434.057000", "152434.059000", "152434.061000", "152434.064000", "152434.066000", "152434.069000", "152434.071000", "152434.074000", "152434.076000", "152434.079000", "152434.081000", "152434.084000", "152434.086000", "152434.089000", "152454.010000", "152454.013000", "152454.016000", "152454.018000", "152454.020000", "152454.023000", "152454.025000", "152454.028000", "152454.030000", "152454.033000", "152454.035000", "152454.038000", "152454.040000", "152454.043000", "152454.045000", "152454.048000", "152454.050000", "152454.052000", "152454.055000", "152454.058000", "152454.061000", "152454.064000", "152454.066000", "152454.069000", "152454.071000", "152454.074000", "152454.076000", "152454.079000", "152454.081000", "152454.084000", "152454.086000", "152454.089000", "152514.010000", "152514.013000", "152514.015000", "152514.018000", "152514.020000", "152514.023000", "152514.025000", "152514.028000", "152514.031000", "152514.033000", "152514.036000", "152514.038000", "152514.041000", "152514.043000", "152514.046000", "152514.048000", "152514.051000", "152514.053000", "152514.056000", "152514.058000", "152514.060000", "152514.063000", "152514.065000", "152514.068000", "152514.070000", "152514.073000", "152514.075000", "152514.078000", "152514.080000", "152514.084000", "152514.086000", "152514.089000", "152514.091000", "152534.011000", "152534.014000", "152534.016000", "152534.019000", "152534.021000", "152534.024000", "152534.026000", "152534.029000", "152534.031000", "152534.033000", "152534.036000", "152534.038000", "152534.041000", "152534.043000", "152534.046000", "152534.048000", "152534.051000", "152534.053000", "152534.056000", "152534.058000", "152534.060000", "152534.063000", "152534.065000", "152534.068000", "152534.070000", "152534.073000", "152534.075000", "152534.078000", "152534.080000", "152534.083000", "152534.085000", "152534.087000", "152534.090000", "152554.011000", "152554.014000", "152554.016000", "152554.019000", "152554.021000", "152554.024000", "152554.026000", "152554.029000", "152554.031000", "152554.034000", "152554.036000", "152554.039000", "152554.041000", "152554.043000", "152554.046000", "152554.048000", "152554.051000", "152554.054000", "152554.056000", "152554.058000", "152554.061000", "152554.063000", "152554.066000", "152554.068000", "152554.071000", "152554.073000", "152554.075000", "152554.078000", "152554.080000", "152554.083000", "152554.085000", "152554.088000", "152554.090000", "152614.011000", "152614.014000", "152614.017000", "152614.019000", "152614.021000", "152614.024000", "152614.026000", "152614.029000", "152614.031000", "152614.034000", "152614.036000", "152614.038000", "152614.041000", "152614.043000", "152614.046000", "152614.048000", "152614.051000", "152614.053000", "152614.056000", "152614.058000", "152614.060000", "152614.063000", "152614.065000", "152614.068000", "152614.070000", "152614.073000", "152614.075000", "152614.077000", "152614.080000", "152614.082000", "152614.085000", "152614.087000", "152614.090000", "152634.010000", "152634.013000", "152634.016000", "152634.018000", "152634.020000", "152634.023000", "152634.025000", "152634.028000", "152634.030000", "152634.033000", "152634.035000", "152634.038000", "152634.040000", "152634.043000", "152634.045000", "152634.047000", "152634.050000", "152634.052000", "152634.055000", "152634.057000", "152634.060000", "152634.062000", "152634.065000", "152634.067000", "152634.069000", "152634.072000", "152634.074000", "152634.077000", "152634.079000", "152634.082000", "152634.084000", "152634.086000", "152654.010000", "152654.013000", "152654.015000", "152654.018000", "152654.021000", "152654.023000", "152654.025000", "152654.028000", "152654.030000", "152654.033000", "152654.035000", "152654.038000", "152654.040000", "152654.043000", "152654.045000", "152654.048000", "152654.050000", "152654.052000", "152654.055000", "152654.057000", "152654.060000", "152654.062000", "152654.065000", "152654.069000", "152654.071000", "152654.074000", "152654.076000", "152654.079000", "152654.081000", "152654.083000", "152654.086000", "152654.088000", "152654.091000", "152710.062000", "152710.065000", "152710.068000", "152710.070000", "152710.073000", "152710.075000", "152710.078000", "152710.080000", "152710.083000", "152710.085000", "152710.088000", "152710.090000", "152710.093000", "152710.095000", "152710.098000", "152710.100000", "152710.102000", "152710.105000", "152710.107000", "152710.110000", "152710.113000", "152710.116000", "152710.118000", "152710.121000", "152710.124000", "152710.126000", "152710.129000"], "InstanceCreationTime": ["152214.039000", "152214.043000", "152214.045000", "152214.047000", "152214.050000", "152214.053000", "152214.055000", "152214.057000", "152214.060000", "152214.062000", "152214.065000", "152214.067000", "152214.070000", "152214.072000", "152214.074000", "152214.083000", "152214.086000", "152214.088000", "152214.091000", "152214.096000", "152214.099000", "152214.101000", "152214.103000", "152214.106000", "152234.010000", "152234.013000", "152234.043000", "152234.045000", "152234.048000", "152234.050000", "152234.053000", "152234.055000", "152234.057000", "152234.060000", "152234.062000", "152234.066000", "152234.069000", "152234.071000", "152234.074000", "152234.076000", "152234.078000", "152234.081000", "152234.083000", "152234.086000", "152234.088000", "152234.091000", "152234.093000", "152234.095000", "152234.098000", "152234.100000", "152234.102000", "152234.105000", "152234.107000", "152234.110000", "152234.112000", "152234.115000", "152234.117000", "152254.010000", "152254.014000", "152254.017000", "152254.019000", "152254.022000", "152254.024000", "152254.034000", "152254.036000", "152254.038000", "152254.041000", "152254.043000", "152254.046000", "152254.048000", "152254.050000", "152254.053000", "152254.055000", "152254.058000", "152254.060000", "152254.062000", "152254.065000", "152254.067000", "152254.070000", "152254.072000", "152254.074000", "152254.077000", "152254.079000", "152254.082000", "152254.084000", "152254.086000", "152254.089000", "152254.091000", "152254.093000", "152254.096000", "152314.011000", "152314.014000", "152314.017000", "152314.019000", "152314.023000", "152314.026000", "152314.028000", "152314.031000", "152314.033000", "152314.036000", "152314.038000", "152314.040000", "152314.043000", "152314.045000", "152314.048000", "152314.050000", "152314.052000", "152314.055000", "152314.057000", "152314.060000", "152314.062000", "152314.065000", "152314.067000", "152314.070000", "152314.072000", "152314.074000", "152314.077000", "152314.079000", "152314.082000", "152314.084000", "152314.086000", "152314.089000", "152334.011000", "152334.014000", "152334.016000", "152334.019000", "152334.021000", "152334.024000", "152334.026000", "152334.028000", "152334.031000", "152334.033000", "152334.036000", "152334.038000", "152334.041000", "152334.043000", "152334.046000", "152334.048000", "152334.051000", "152334.053000", "152334.056000", "152334.058000", "152334.060000", "152334.063000", "152334.065000", "152334.068000", "152334.070000", "152334.073000", "152334.075000", "152334.078000", "152334.080000", "152334.083000", "152334.085000", "152334.087000", "152334.090000", "152354.011000", "152354.014000", "152354.016000", "152354.019000", "152354.021000", "152354.024000", "152354.026000", "152354.028000", "152354.031000", "152354.033000", "152354.035000", "152354.038000", "152354.040000", "152354.043000", "152354.051000", "152354.053000", "152354.056000", "152354.058000", "152354.061000", "152354.063000", "152354.066000", "152354.068000", "152354.070000", "152354.073000", "152354.075000", "152354.078000", "152354.080000", "152354.083000", "152354.085000", "152354.087000", "152354.090000", "152354.092000", "152354.095000", "152414.010000", "152414.013000", "152414.015000", "152414.018000", "152414.020000", "152414.023000", "152414.025000", "152414.028000", "152414.030000", "152414.032000", "152414.035000", "152414.037000", "152414.040000", "152414.042000", "152414.045000", "152414.047000", "152414.050000", "152414.052000", "152414.054000", "152414.057000", "152414.059000", "152414.062000", "152414.064000", "152414.067000", "152414.069000", "152414.072000", "152414.074000", "152414.076000", "152414.079000", "152414.081000", "152414.084000", "152414.086000", "152414.088000", "152434.010000", "152434.013000", "152434.015000", "152434.018000", "152434.020000", "152434.023000", "152434.025000", "152434.028000", "152434.030000", "152434.032000", "152434.035000", "152434.037000", "152434.040000", "152434.042000", "152434.045000", "152434.047000", "152434.049000", "152434.052000", "152434.054000", "152434.057000", "152434.059000", "152434.061000", "152434.064000", "152434.066000", "152434.069000", "152434.071000", "152434.074000", "152434.076000", "152434.079000", "152434.081000", "152434.084000", "152434.086000", "152434.089000", "152454.010000", "152454.013000", "152454.016000", "152454.018000", "152454.020000", "152454.023000", "152454.025000", "152454.028000", "152454.030000", "152454.033000", "152454.035000", "152454.038000", "152454.040000", "152454.043000", "152454.045000", "152454.048000", "152454.050000", "152454.052000", "152454.055000", "152454.058000", "152454.061000", "152454.064000", "152454.066000", "152454.069000", "152454.071000", "152454.074000", "152454.076000", "152454.079000", "152454.081000", "152454.084000", "152454.086000", "152454.089000", "152514.010000", "152514.013000", "152514.015000", "152514.018000", "152514.020000", "152514.023000", "152514.025000", "152514.028000", "152514.031000", "152514.033000", "152514.036000", "152514.038000", "152514.041000", "152514.043000", "152514.046000", "152514.048000", "152514.051000", "152514.053000", "152514.056000", "152514.058000", "152514.060000", "152514.063000", "152514.065000", "152514.068000", "152514.070000", "152514.073000", "152514.075000", "152514.078000", "152514.080000", "152514.084000", "152514.086000", "152514.089000", "152514.091000", "152534.