{"AcquisitionMatrixPE": 64, "AcquisitionNumber": 1, "AcquisitionTime": "12:21:0.710000", "BandwidthPerPixelPhaseEncode": 28.935, "BaseResolution": 64, "BodyPartExamined": "BRAIN", "CoilCombinationMethod": "Sum of Squares", "ConsistencyInfo": "N4_VE11E_LATEST_20181129", "ConversionSoftware": "dcm2niix", "ConversionSoftwareVersion": "v1.0.20230411", "DerivedVendorReportedEchoSpacing": 0.000540003, "DeviceSerialNumber": "166182", "DwellTime": 3.4e-06, "EchoTime": 0.032, "EchoTrainLength": 64, "EffectiveEchoSpacing": 0.000540003, "FlipAngle": 40, "HeudiconvVersion": "0.13.1", "ImageOrientationPatientDICOM": [0.995577, -0.0910771, -0.023064, 0.0923569, 0.99377, 0.0623732], "ImageOrientationText": "Tra>Cor(3.7)>Sag(-1.0)", "ImageType": ["ORIGINAL", "PRIMARY", "M", "ND", "NORM", "MOSAIC"], "ImagingFrequency": 123.254864, "InPlanePhaseEncodingDirectionDICOM": "COL", "InstitutionAddress": "PEARSE STREET .,City,District,IE,D2", "InstitutionName": "TCIN", "InstitutionalDepartmentName": "MRI", "MRAcquisitionType": "2D", "MagneticFieldStrength": 3, "Manufacturer": "Siemens", "ManufacturersModelName": "Prisma", "Modality": "MR", "MultibandAccelerationFactor": 4, "NonlinearGradientCorrection": false, "PartialFourier": 1, "PatientPosition": "HFS", "PercentPhaseFOV": 100, "PercentSampling": 100, "PhaseEncodingDirection": "j-", "PhaseEncodingSteps": 64, "PhaseResolution": 1, "PixelBandwidth": 2300, "ProcedureStepDescription": "Rhodri^Head BOLD", "ProtocolName": "cmrr_mbep2d_Pictures_AP_RDS", "PulseSequenceDetails": "%SiemensSeq%\\ep2d_bold", "ReceiveCoilActiveElements": "HC2,4,6,7;SC", "ReceiveCoilName": "SpecialPurpose_4", "ReconMatrixPE": 64, "RefLinesPE": 12, "RepetitionTime": 0.61, "SAR": 0.227479, "ScanOptions": "FS", "ScanningSequence": "EP", "SequenceName": "*epfid2d1_64", "SequenceVariant": "SK", "SeriesDescription": "cmrr_mbep2d_Pictures_AP_RDS", "SeriesNumber": 10, "ShimSetting": [-3583, -7446, 3843, 1271, 69, 135, 30, 382], "SliceThickness": 3, "SliceTiming": [0.2625, 0, 0.3275, 0.0675, 0.395, 0.1325, 0.46, 0.1975, 0.525, 0.2625, 0, 0.3275, 0.0675, 0.395, 0.1325, 0.46, 0.1975, 0.525, 0.2625, 0, 0.3275, 0.0675, 0.395, 0.1325, 0.46, 0.1975, 0.525, 0.2625, 0, 0.3275, 0.0675, 0.395, 0.1325, 0.46, 0.1975, 0.525], "SoftwareVersions": "syngo MR E11", "SpacingBetweenSlices": 3.3, "StationName": "AWP166182", "TaskName": "pictures", "TotalReadoutTime": 0.0340202, "TxRefAmp": 222.584, "dcmmeta_affine": [[-2.9867300987243652, 0.2770706117153168, -0.056890398263931274, 87.88237762451172], [0.2732314169406891, 2.981311559677124, 0.21195055544376373, -119.26907348632812], [-0.06919190287590027, -0.18711966276168823, 3.2926948070526123, -76.68327331542969], [0.0, 0.0, 0.0, 1.0]], "dcmmeta_reorient_transform": [[0.0, -1.0, 0.0, 63.0], [1.0, 0.0, 0.0, 0.0], [0.0, 0.0, 1.0, 0.0], [0.0, 0.0, 0.0, 1.0]], "dcmmeta_shape": [64, 64, 36, 510], "dcmmeta_slice_dim": 2, "dcmmeta_version": 0.6, "global": {"const": {"AcquisitionMatrix": [64, 0, 0, 64], "AngioFlag": "N", "BitsAllocated": 16, "BitsStored": 12, "BodyPartExamined": "BRAIN", "Columns": 384, "EchoNumbers": 1, "EchoTime": 32.0, "EchoTrainLength": 64, "FlipAngle": 40.0, "HighBit": 11, "ImageOrientationPatient": [0.99557672133299, -0.0910771397899, -0.0230639664316, 0.09235686801669, 0.99377049179112, 0.0623732200177], "ImagePositionPatient": [-627.54595169858, -501.84635785904, -107.34025018279], "ImageType": ["ORIGINAL", "PRIMARY", "M", "ND", "NORM", "MOSAIC"], "ImagedNucleus": "1H", "ImagingFrequency": 123.254864, "InPlanePhaseEncodingDirection": "COL", "MRAcquisitionType": "2D", "MagneticFieldStrength": 3.0, "Manufacturer": "SIEMENS", "ManufacturerModelName": "Prisma", "Modality": "MR", "NumberOfAverages": 1.0, "NumberOfPhaseEncodingSteps": 64, "PercentPhaseFieldOfView": 100.0, "PercentSampling": 100.0, "PerformedProcedureStepStartTime": "115515.589000", "PhotometricInterpretation": "MONOCHROME2", "PixelBandwidth": 2300.0, "PixelRepresentation": 0, "PixelSpacing": [3.0, 3.0], "ProtocolName": "cmrr_mbep2d_Pictures_AP_RDS", "RepetitionTime": 610.0, "Rows": 384, "SAR": 0.22747902888724, "SamplesPerPixel": 1, "ScanOptions": "FS", "ScanningSequence": "EP", "SequenceName": "*epfid2d1_64", "SequenceVariant": "SK", "SeriesDescription": "cmrr_mbep2d_Pictures_AP_RDS", "SeriesNumber": 10, "SeriesTime": "122118.088000", "SliceLocation": -85.688918377627, "SliceThickness": 3.0, "SmallestImagePixelValue": 0, "SoftwareVersions": "syngo MR E11", "SpacingBetweenSlices": 3.2999998965633, "SpecificCharacterSet": "ISO_IR 100", "StudyID": "1", "StudyTime": "115515.496000", "TransmitCoilName": "Body", "VariableFlipAngleFlag": "N", "WindowCenterWidthExplanation": "Algo1"}, "slices": {}}, "time": {"samples": {"AcquisitionNumber": [1, 2, 3, 4, 5, 6, 7, 8, 9, 10, 11, 12, 13, 14, 15, 16, 17, 18, 19, 20, 21, 22, 23, 24, 25, 26, 27, 28, 29, 30, 31, 32, 33, 34, 35, 36, 37, 38, 39, 40, 41, 42, 43, 44, 45, 46, 47, 48, 49, 50, 51, 52, 53, 54, 55, 56, 57, 58, 59, 60, 61, 62, 63, 64, 65, 66, 67, 68, 69, 70, 71, 72, 73, 74, 75, 76, 77, 78, 79, 80, 81, 82, 83, 84, 85, 86, 87, 88, 89, 90, 91, 92, 93, 94, 95, 96, 97, 98, 99, 100, 101, 102, 103, 104, 105, 106, 107, 108, 109, 110, 111, 112, 113, 114, 115, 116, 117, 118, 119, 120, 121, 122, 123, 124, 125, 126, 127, 128, 129, 130, 131, 132, 133, 134, 135, 136, 137, 138, 139, 140, 141, 142, 143, 144, 145, 146, 147, 148, 149, 150, 151, 152, 153, 154, 155, 156, 157, 158, 159, 160, 161, 162, 163, 164, 165, 166, 167, 168, 169, 170, 171, 172, 173, 174, 175, 176, 177, 178, 179, 180, 181, 182, 183, 184, 185, 186, 187, 188, 189, 190, 191, 192, 193, 194, 195, 196, 197, 198, 199, 200, 201, 202, 203, 204, 205, 206, 207, 208, 209, 210, 211, 212, 213, 214, 215, 216, 217, 218, 219, 220, 221, 222, 223, 224, 225, 226, 227, 228, 229, 230, 231, 232, 233, 234, 235, 236, 237, 238, 239, 240, 241, 242, 243, 244, 245, 246, 247, 248, 249, 250, 251, 252, 253, 254, 255, 256, 257, 258, 259, 260, 261, 262, 263, 264, 265, 266, 267, 268, 269, 270, 271, 272, 273, 274, 275, 276, 277, 278, 279, 280, 281, 282, 283, 284, 285, 286, 287, 288, 289, 290, 291, 292, 293, 294, 295, 296, 297, 298, 299, 300, 301, 302, 303, 304, 305, 306, 307, 308, 309, 310, 311, 312, 313, 314, 315, 316, 317, 318, 319, 320, 321, 322, 323, 324, 325, 326, 327, 328, 329, 330, 331, 332, 333, 334, 335, 336, 337, 338, 339, 340, 341, 342, 343, 344, 345, 346, 347, 348, 349, 350, 351, 352, 353, 354, 355, 356, 357, 358, 359, 360, 361, 362, 363, 364, 365, 366, 367, 368, 369, 370, 371, 372, 373, 374, 375, 376, 377, 378, 379, 380, 381, 382, 383, 384, 385, 386, 387, 388, 389, 390, 391, 392, 393, 394, 395, 396, 397, 398, 399, 400, 401, 402, 403, 404, 405, 406, 407, 408, 409, 410, 411, 412, 413, 414, 415, 416, 417, 418, 419, 420, 421, 422, 423, 424, 425, 426, 427, 428, 429, 430, 431, 432, 433, 434, 435, 436, 437, 438, 439, 440, 441, 442, 443, 444, 445, 446, 447, 448, 449, 450, 451, 452, 453, 454, 455, 456, 457, 458, 459, 460, 461, 462, 463, 464, 465, 466, 467, 468, 469, 470, 471, 472, 473, 474, 475, 476, 477, 478, 479, 480, 481, 482, 483, 484, 485, 486, 487, 488, 489, 490, 491, 492, 493, 494, 495, 496, 497, 498, 499, 500, 501, 502, 503, 504, 505, 506, 507, 508, 509, 510], "AcquisitionTime": ["122100.710000", "122101.320000", "122101.930000", "122102.540000", "122103.150000", "122103.760000", "122104.370000", "122104.980000", "122105.590000", "122106.200000", "122106.810000", "122107.420000", "122108.030000", "122108.640000", "122109.250000", "122109.860000", "122110.470000", "122111.080000", "122111.690000", "122112.300000", "122112.910000", "122113.520000", "122114.130000", "122114.740000", "122115.350000", "122115.960000", "122116.570000", "122117.180000", "122117.790000", "122118.400000", "122119.010000", "122119.620000", "122120.230000", "122120.840000", "122121.450000", "122122.060000", "122122.670000", "122123.280000", "122123.890000", "122124.500000", "122125.110000", "122125.720000", "122126.330000", "122126.940000", "122127.550000", "122128.160000", "122128.770000", "122129.380000", "122129.990000", "122130.600000", "122131.210000", "122131.820000", "122132.430000", "122133.040000", "122133.650000", "122134.260000", "122134.870000", "122135.480000", "122136.090000", "122136.700000", "122137.310000", "122137.920000", "122138.530000", "122139.140000", "122139.750000", "122140.360000", "122140.970000", "122141.580000", "122142.190000", "122142.800000", "122143.410000", "122144.020000", "122144.630000", "122145.240000", "122145.850000", "122146.460000", "122147.070000", "122147.680000", "122148.290000", "122148.900000", "122149.510000", "122150.120000", "122150.730000", "122151.340000", "122151.950000", "122152.560000", "122153.170000", "122153.780000", "122154.390000", "122155.000000", "122155.610000", "122156.220000", "122156.830000", "122157.440000", "122158.050000", "122158.660000", "122159.270000", "122159.880000", "122200.490000", "122201.100000", "122201.710000", "122202.320000", "122202.930000", "122203.540000", "122204.150000", "122204.760000", "122205.370000", "122205.980000", "122206.590000", "122207.200000", "122207.810000", "122208.420000", "122209.030000", "122209.640000", "122210.250000", "122210.860000", "122211.470000", "122212.080000", "122212.690000", "122213.300000", "122213.910000", "122214.520000", "122215.130000", "122215.740000", "122216.350000", "122216.960000", "122217.570000", "122218.180000", "122218.790000", "122219.400000", "122220.010000", "122220.620000", "122221.230000", "122221.840000", "122222.450000", "122223.060000", "122223.670000", "122224.280000", "122224.890000", "122225.500000", "122226.110000", "122226.720000", "122227.330000", "122227.940000", "122228.550000", "122229.160000", "122229.770000", "122230.380000", "122230.990000", "122231.600000", "122232.210000", "122232.820000", "122233.430000", "122234.040000", "122234.650000", "122235.260000", "122235.870000", "122236.480000", "122237.090000", "122237.700000", "122238.310000", "122238.920000", "122239.530000", "122240.140000", "122240.750000", "122241.360000", "122241.970000", "122242.580000", "122243.190000", "122243.800000", "122244.410000", "122245.020000", "122245.630000", "122246.240000", "122246.850000", "122247.460000", "122248.070000", "122248.680000", "122249.290000", "122249.900000", "122250.510000", "122251.120000", "122251.730000", "122252.340000", "122252.950000", "122253.560000", "122254.170000", "122254.780000", "122255.390000", "122256.000000", "122256.610000", "122257.220000", "122257.830000", "122258.440000", "122259.050000", "122259.660000", "122300.270000", "122300.880000", "122301.490000", "122302.100000", "122302.710000", "122303.320000", "122303.930000", "122304.540000", "122305.150000", "122305.760000", "122306.370000", "122306.980000", "122307.590000", "122308.200000", "122308.810000", "122309.420000", "122310.030000", "122310.640000", "122311.250000", "122311.860000", "122312.470000", "122313.080000", "122313.690000", "122314.300000", "122314.910000", "122315.520000", "122316.130000", "122316.740000", "122317.350000", "122317.960000", "122318.570000", "122319.180000", "122319.790000", "122320.400000", "122321.010000", "122321.620000", "122322.230000", "122322.840000", "122323.450000", "122324.060000", "122324.670000", "122325.280000", "122325.890000", "122326.500000", "122327.110000", "122327.720000", "122328.330000", "122328.940000", "122329.550000", "122330.160000", "122330.770000", "122331.380000", "122331.990000", "122332.600000", "122333.210000", "122333.820000", "122334.430000", "122335.040000", "122335.650000", "122336.260000", "122336.870000", "122337.480000", "122338.090000", "122338.700000", "122339.310000", "122339.920000", "122340.530000", "122341.140000", "122341.750000", "122342.360000", "122342.970000", "122343.580000", "122344.190000", "122344.800000", "122345.410000", "122346.020000", "122346.630000", "122347.240000", "122347.850000", "122348.460000", "122349.070000", "122349.680000", "122350.290000", "122350.900000", "122351.510000", "122352.120000", "122352.730000", "122353.340000", "122353.950000", "122354.560000", "122355.170000", "122355.780000", "122356.390000", "122357.000000", "122357.610000", "122358.220000", "122358.830000", "122359.440000", "122400.050000", "122400.660000", "122401.270000", "122401.880000", "122402.490000", "122403.100000", "122403.710000", "122404.320000", "122404.930000", "122405.540000", "122406.150000", "122406.760000", "122407.370000", "122407.980000", "122408.590000", "122409.200000", "122409.810000", "122410.420000", "122411.030000", "122411.640000", "122412.250000", "122412.860000", "122413.470000", "122414.080000", "122414.690000", "122415.300000", "122415.910000", "122416.520000", "122417.130000", "122417.740000", "122418.350000", "122418.960000", "122419.570000", "122420.180000", "122420.790000", "122421.400000", "122422.010000", "122422.620000", "122423.230000", "122423.840000", "122424.450000", "122425.060000", "122425.670000", "122426.280000", "122426.890000", "122427.500000", "122428.110000", "122428.720000", "122429.330000", "122429.940000", "122430.550000", "122431.160000", "122431.770000", "122432.380000", "122432.990000", "122433.600000", "122434.210000", "122434.820000", "122435.430000", "122436.040000", "122436.650000", "122437.260000", "122437.870000", "122438.480000", "122439.090000", "122439.700000", "122440.310000", "122440.920000", "122441.530000", "122442.140000", "122442.750000", "122443.360000", "122443.970000", "122444.580000", "122445.190000", "122445.800000", "122446.410000", "122447.020000", "122447.630000", "122448.240000", "122448.850000", "122449.460000", "122450.070000", "122450.680000", "122451.290000", "122451.900000", "122452.510000", "122453.120000", "122453.730000", "122454.340000", "122454.950000", "122455.560000", "122456.170000", "122456.780000", "122457.390000", "122458.000000", "122458.610000", "122459.220000", "122459.830000", "122500.440000", "122501.050000", "122501.660000", "122502.270000", "122502.880000", "122503.490000", "122504.100000", "122504.710000", "122505.320000", "122505.930000", "122506.540000", "122507.150000", "122507.760000", "122508.370000", "122508.980000", "122509.590000", "122510.200000", "122510.810000", "122511.420000", "122512.030000", "122512.640000", "122513.250000", "122513.860000", "122514.470000", "122515.080000", "122515.690000", "122516.300000", "122516.910000", "122517.520000", "122518.130000", "122518.740000", "122519.350000", "122519.960000", "122520.570000", "122521.180000", "122521.790000", "122522.400000", "122523.010000", "122523.620000", "122524.230000", "122524.840000", "122525.450000", "122526.060000", "122526.670000", "122527.280000", "122527.890000", "122528.500000", "122529.110000", "122529.720000", "122530.330000", "122530.940000", "122531.550000", "122532.160000", "122532.770000", "122533.380000", "122533.990000", "122534.600000", "122535.210000", "122535.820000", "122536.430000", "122537.040000", "122537.650000", "122538.260000", "122538.870000", "122539.480000", "122540.090000", "122540.700000", "122541.310000", "122541.920000", "122542.530000", "122543.140000", "122543.750000", "122544.360000", "122544.970000", "122545.580000", "122546.190000", "122546.800000", "122547.410000", "122548.020000", "122548.630000", "122549.240000", "122549.850000", "122550.460000", "122551.070000", "122551.680000", "122552.290000", "122552.900000", "122553.510000", "122554.120000", "122554.730000", "122555.340000", "122555.950000", "122556.560000", "122557.170000", "122557.780000", "122558.390000", "122559.000000", "122559.610000", "122600.220000", "122600.830000", "122601.440000", "122602.050000", "122602.660000", "122603.270000", "122603.880000", "122604.490000", "122605.100000", "122605.710000", "122606.320000", "122606.930000", "122607.540000", "122608.150000", "122608.760000", "122609.370000", "122609.980000", "122610.590000", "122611.200000"], "ContentTime": ["122118.092000", "122118.096000", "122118.098000", "122118.100000", "122118.103000", "122118.105000", "122118.108000", "122118.110000", "122118.112000", "122118.115000", "122118.117000", "122118.120000", "122118.132000", "122118.134000", "122118.137000", "122118.139000", "122118.141000", "122118.144000", "122118.150000", "122118.152000", "122118.155000", "122118.157000", "122118.159000", "122118.162000", "122118.164000", "122118.167000", "122118.169000", "122118.171000", "122138.087000", "122138.090000", "122138.092000", "122138.095000", "122138.097000", "122138.099000", "122138.102000", "122138.104000", "122138.107000", "122138.109000", "122138.111000", "122138.118000", "122138.120000", "122138.123000", "122138.125000", "122138.128000", "122138.130000", "122138.132000", "122138.135000", "122138.137000", "122138.140000", "122138.142000", "122138.144000", "122138.147000", "122138.149000", "122138.153000", "122138.156000", "122138.158000", "122138.160000", "122138.163000", "122138.165000", "122138.167000", "122138.170000", "122158.087000", "122158.090000", "122158.093000", "122158.095000", "122158.097000", "122158.100000", "122158.102000", "122158.104000", "122158.107000", "122158.109000", "122158.112000", "122158.114000", "122158.116000", "122158.119000", "122158.121000", "122158.124000", "122158.126000", "122158.128000", "122158.131000", "122158.133000", "122158.135000", "122158.138000", "122158.140000", "122158.143000", "122158.145000", "122158.147000", "122158.150000", "122158.152000", "122158.155000", "122158.157000", "122158.160000", "122158.162000", "122218.087000", "122218.090000", "122218.092000", "122218.095000", "122218.097000", "122218.125000", "122218.127000", "122218.130000", "122218.132000", "122218.134000", "122218.137000", "122218.139000", "122218.142000", "122218.144000", "122218.146000", "122218.149000", "122218.151000", "122218.154000", "122218.157000", "122218.159000", "122218.162000", "122218.164000", "122218.166000", "122218.169000", "122218.171000", "122218.174000", "122218.176000", "122218.178000", "122218.181000", "122218.183000", "122218.185000", "122218.188000", "122218.190000", "122238.087000", "122238.090000", "122238.092000", "122238.095000", "122238.098000", "122238.100000", "122238.102000", "122238.105000", "122238.107000", "122238.110000", "122238.112000", "122238.114000", "122238.117000", "122238.119000", "122238.122000", "122238.124000", "122238.127000", "122238.129000", "122238.131000", "122238.134000", "122238.136000", "122238.138000", "122238.141000", "122238.143000", "122238.146000", "122238.148000", "122238.150000", "122238.153000", "122238.155000", "122238.158000", "122238.160000", "122238.163000", "122238.165000", "122258.087000", "122258.090000", "122258.093000", "122258.095000", "122258.098000", "122258.100000", "122258.102000", "122258.105000", "122258.107000", "122258.110000", "122258.112000", "122258.115000", "122258.117000", "122258.120000", "122258.122000", "122258.125000", "122258.127000", "122258.130000", "122258.132000", "122258.135000", "122258.137000", "122258.140000", "122258.142000", "122258.144000", "122258.147000", "122258.150000", "122258.152000", "122258.154000", "122258.157000", "122258.159000", "122258.162000", "122258.164000", "122258.167000", "122318.087000", "122318.089000", "122318.093000", "122318.095000", "122318.097000", "122318.100000", "122318.102000", "122318.105000", "122318.107000", "122318.109000", "122318.112000", "122318.114000", "122318.116000", "122318.119000", "122318.121000", "122318.124000", "122318.126000", "122318.128000", "122318.131000", "122318.133000", "122318.135000", "122318.138000", "122318.140000", "122318.143000", "122318.145000", "122318.148000", "122318.150000", "122318.152000", "122318.155000", "122318.157000", "122318.160000", "122318.162000", "122338.087000", "122338.090000", "122338.093000", "122338.095000", "122338.097000", "122338.100000", "122338.102000", "122338.104000", "122338.107000", "122338.109000", "122338.112000", "122338.114000", "122338.117000", "122338.120000", "122338.122000", "122338.125000", "122338.127000", "122338.129000", "122338.132000", "122338.134000", "122338.136000", "122338.139000", "122338.141000", "122338.144000", "122338.146000", "122338.148000", "122338.151000", "122338.153000", "122338.156000", "122338.158000", "122338.160000", "122338.163000", "122338.165000", "122358.087000", "122358.090000", "122358.092000", "122358.095000", "122358.097000", "122358.100000", "122358.102000", "122358.105000", "122358.107000", "122358.110000", "122358.112000", "122358.114000", "122358.117000", "122358.119000", "122358.122000", "122358.124000", "122358.126000", "122358.129000", "122358.131000", "122358.134000", "122358.136000", "122358.139000", "122358.141000", "122358.143000", "122358.146000", "122358.148000", "122358.151000", "122358.153000", "122358.156000", "122358.158000", "122358.160000", "122358.163000", "122358.165000", "122418.087000", "122418.090000", "122418.092000", "122418.094000", "122418.097000", "122418.100000", "122418.102000", "122418.104000", "122418.107000", "122418.109000", "122418.112000", "122418.114000", "122418.116000", "122418.119000", "122418.121000", "122418.123000", "122418.126000", "122418.128000", "122418.131000", "122418.133000", "122418.136000", "122418.138000", "122418.140000", "122418.143000", "122418.145000", "122418.147000", "122418.150000", "122418.152000", "122418.155000", "122418.157000", "122418.159000", "122418.162000", "122418.164000", "122438.087000", "122438.090000", "122438.092000", "122438.095000", "122438.097000", "122438.100000", "122438.102000", "122438.105000", "122438.107000", "122438.110000", "122438.112000", "122438.114000", "122438.117000", "122438.119000", "122438.122000", "122438.124000", "122438.126000", "122438.129000", "122438.131000", "122438.134000", "122438.136000", "122438.139000", "122438.141000", "122438.144000", "122438.146000", "122438.149000", "122438.151000", "122438.154000", "122438.156000", "122438.158000", "122438.161000", "122438.163000", "122438.166000", "122458.087000", "122458.090000", "122458.092000", "122458.095000", "122458.097000", "122458.100000", "122458.102000", "122458.104000", "122458.107000", "122458.109000", "122458.112000", "122458.114000", "122458.116000", "122458.119000", "122458.122000", "122458.124000", "122458.127000", "122458.142000", "122458.145000", "122458.147000", "122458.150000", "122458.152000", "122458.155000", "122458.157000", "122458.159000", "122458.162000", "122458.165000", "122458.167000", "122458.169000", "122458.172000", "122458.174000", "122458.176000", "122518.087000", "122518.090000", "122518.092000", "122518.095000", "122518.097000", "122518.100000", "122518.103000", "122518.106000", "122518.108000", "122518.111000", "122518.113000", "122518.115000", "122518.118000", "122518.120000", "122518.123000", "122518.125000", "122518.127000", "122518.130000", "122518.132000", "122518.135000", "122518.137000", "122518.139000", "122518.142000", "122518.144000", "122518.147000", "122518.149000", "122518.152000", "122518.154000", "122518.157000", "122518.159000", "122518.162000", "122518.164000", "122518.166000", "122538.086000", "122538.089000", "122538.091000", "122538.101000", "122538.103000", "122538.106000", "122538.108000", "122538.111000", "122538.113000", "122538.115000", "122538.118000", "122538.120000", "122538.123000", "122538.125000", "122538.127000", "122538.130000", "122538.132000", "122538.135000", "122538.137000", "122538.139000", "122538.142000", "122538.144000", "122538.147000", "122538.149000", "122538.152000", "122538.154000", "122538.156000", "122538.159000", "122538.161000", "122538.164000", "122538.166000", "122538.169000", "122538.171000", "122558.087000", "122558.090000", "122558.092000", "122558.095000", "122558.097000", "122558.099000", "122558.102000", "122558.104000", "122558.107000", "122558.109000", "122558.112000", "122558.114000", "122558.116000", "122558.119000", "122558.121000", "122558.124000", "122558.126000", "122558.129000", "122558.131000", "122558.133000", "122558.136000", "122558.138000", "122558.153000", "122558.156000", "122558.158000", "122558.161000", "122558.163000", "122558.166000", "122558.168000", "122558.170000", "122558.173000", "122558.175000", "122558.178000", "122611.906000", "122611.909000", "122611.912000", "122611.914000", "122611.917000", "122611.919000", "122611.922000", "122611.924000", "122611.926000", "122611.929000", "122611.931000", "122611.934000", "122611.936000", "122611.938000", "122611.941000", "122611.943000", "122611.946000", "122611.948000", "122611.950000", "122611.953000", "122611.955000", "122611.958000", "122611.960000"], "InstanceCreationTime": ["122118.092000", "122118.096000", "122118.098000", "122118.100000", "122118.103000", "122118.105000", "122118.108000", "122118.110000", "122118.112000", "122118.115000", "122118.117000", "122118.120000", "122118.132000", "122118.134000", "122118.137000", "122118.139000", "122118.141000", "122118.144000", "122118.150000", "122118.152000", "122118.155000", "122118.157000", "122118.159000", "122118.162000", "122118.164000", "122118.167000", "122118.169000", "122118.171000", "122138.087000", "122138.090000", "122138.092000", "122138.095000", "122138.097000", "122138.099000", "122138.102000", "122138.104000", "122138.107000", "122138.109000", "122138.111000", "122138.118000", "122138.120000", "122138.123000", "122138.125000", "122138.128000", "122138.130000", "122138.132000", "122138.135000", "122138.137000", "122138.140000", "122138.142000", "122138.144000", "122138.147000", "122138.149000", "122138.153000", "122138.156000", "122138.158000", "122138.160000", "122138.163000", "122138.165000", "122138.167000", "122138.170000", "122158.087000", "122158.090000", "122158.093000", "122158.095000", "122158.097000", "122158.100000", "122158.102000", "122158.104000", "122158.107000", "122158.109000", "122158.112000", "122158.114000", "122158.116000", "122158.119000", "122158.121000", "122158.124000", "122158.126000", "122158.128000", "122158.131000", "122158.133000", "122158.135000", "122158.138000", "122158.140000", "122158.143000", "122158.145000", "122158.147000", "122158.150000", "122158.152000", "122158.155000", "122158.157000", "122158.160000", "122158.162000", "122218.087000", "122218.090000", "122218.092000", "122218.095000", "122218.097000", "122218.125000", "122218.127000", "122218.130000", "122218.132000", "122218.134000", "122218.137000", "122218.139000", "122218.142000", "122218.144000", "122218.146000", "122218.149000", "122218.151000", "122218.154000", "122218.157000", "122218.159000", "122218.162000", "122218.164000", "122218.166000", "122218.169000", "122218.171000", "122218.174000", "122218.176000", "122218.178000", "122218.181000", "122218.183000", "122218.185000", "122218.188000", "122218.190000", "122238.087000", "122238.090000", "122238.092000", "122238.095000", "122238.098000", "122238.100000", "122238.102000", "122238.105000", "122238.107000", "122238.110000", "122238.112000", "122238.114000", "122238.117000", "122238.119000", "122238.122000", "122238.124000", "122238.127000", "122238.129000", "122238.131000", "122238.134000", "122238.136000", "122238.138000", "122238.141000", "122238.143000", "122238.146000", "122238.148000", "122238.150000", "122238.153000", "122238.155000", "122238.158000", "122238.160000", "122238.163000", "122238.165000", "122258.087000", "122258.090000", "122258.093000", "122258.095000", "122258.098000", "122258.100000", "122258.102000", "122258.105000", "122258.107000", "122258.110000", "122258.112000", "122258.115000", "122258.117000", "122258.120000", "122258.122000", "122258.125000", "122258.127000", "122258.130000", "122258.132000", "122258.135000", "122258.137000", "122258.140000", "122258.142000", "122258.144000", "122258.147000", "122258.150000", "122258.152000", "122258.154000", "122258.157000", "122258.159000", "122258.162000", "122258.164000", "122258.167000", "122318.087000", "122318.089000", "122318.093000", "122318.095000", "122318.097000", "122318.100000", "122318.102000", "122318.105000", "122318.107000", "122318.109000", "122318.112000", "122318.114000", "122318.116000", "122318.119000", "122318.121000", "122318.124000", "122318.126000", "122318.128000", "122318.131000", "122318.133000", "122318.135000", "122318.138000", "122318.140000", "122318.143000", "122318.145000", "122318.148000", "122318.150000", "122318.152000", "122318.155000", "122318.157000", "122318.160000", "122318.162000", "122338.087000", "122338.090000", "122338.093000", "122338.095000", "122338.097000", "122338.100000", "122338.102000", "122338.104000", "122338.107000", "122338.109000", "122338.112000", "122338.114000", "122338.117000", "122338.120000", "122338.122000", "122338.125000", "122338.127000", "122338.129000", "122338.132000", "122338.134000", "122338.136000", "122338.139000", "122338.141000", "122338.144000", "122338.146000", "122338.148000", "122338.151000", "122338.153000", "122338.156000", "122338.158000", "122338.160000", "122338.163000", "122338.165000", "122358.087000", "122358.090000", "122358.092000", "122358.095000", "122358.097000", "122358.100000", "122358.102000", "122358.105000", "122358.107000", "122358.110000", "122358.112000", "122358.114000", "122358.117000", "122358.119000", "122358.122000", "122358.124000", "122358.126000", "122358.129000", "122358.131000", "122358.134000", "122358.136000", "122358.139000", "122358.141000", "122358.143000", "122358.146000", "122358.148000", "122358.151000", "122358.153000", "122358.156000", "122358.158000", "122358.160000", "122358.163000", "122358.165000", "122418.087000", "122418.090000", "122418.092000", "122418.094000", "122418.097000", "122418.100000", "122418.102000", "122418.104000", "122418.107000", "122418.109000", "122418.112000", "122418.114000", "122418.116000", "122418.119000", "122418.121000", "122418.123000", "122418.126000", "122418.128000", "122418.131000", "122418.133000", "122418.136000", "122418.138000", "122418.140000", "122418.143000", "122418.145000", "122418.147000", "122418.150000", "122418.152000", "122418.155000", "122418.15