{"AcquisitionMatrixPE": 64, "AcquisitionNumber": 1, "AcquisitionTime": "13:08:50.682500", "BandwidthPerPixelPhaseEncode": 28.935, "BaseResolution": 64, "BodyPartExamined": "BRAIN", "CoilCombinationMethod": "Sum of Squares", "ConsistencyInfo": "N4_VE11E_LATEST_20181129", "ConversionSoftware": "dcm2niix", "ConversionSoftwareVersion": "v1.0.20230411", "DerivedVendorReportedEchoSpacing": 0.000540003, "DeviceSerialNumber": "166182", "DwellTime": 3.4e-06, "EchoTime": 0.032, "EchoTrainLength": 64, "EffectiveEchoSpacing": 0.000540003, "FlipAngle": 40, "HeudiconvVersion": "0.13.1", "ImageOrientationPatientDICOM": [0.998605, -0.0351635, 0.0393963, 0.0383625, 0.995758, -0.0836271], "ImageOrientationText": "Tra>Cor(-4.9)>Sag(2.1)", "ImageType": ["ORIGINAL", "PRIMARY", "M", "ND", "NORM", "MOSAIC"], "ImagingFrequency": 123.257528, "InPlanePhaseEncodingDirectionDICOM": "COL", "InstitutionAddress": "PEARSE STREET .,City,District,IE,D2", "InstitutionName": "TCIN", "InstitutionalDepartmentName": "MRI", "MRAcquisitionType": "2D", "MagneticFieldStrength": 3, "Manufacturer": "Siemens", "ManufacturersModelName": "Prisma", "Modality": "MR", "MultibandAccelerationFactor": 4, "NonlinearGradientCorrection": false, "PartialFourier": 1, "PatientPosition": "HFS", "PercentPhaseFOV": 100, "PercentSampling": 100, "PhaseEncodingDirection": "j-", "PhaseEncodingSteps": 64, "PhaseResolution": 1, "PixelBandwidth": 2300, "ProcedureStepDescription": "Rhodri^Head BOLD", "ProtocolName": "cmrr_mbep2d_bold_Pictures_AP", "PulseSequenceDetails": "%SiemensSeq%\\ep2d_bold", "ReceiveCoilActiveElements": "HC2,4,6,7;NC2;SC", "ReceiveCoilName": "HeadNeck_64", "ReconMatrixPE": 64, "RefLinesPE": 12, "RepetitionTime": 0.61, "SAR": 0.376971, "ScanOptions": "FS", "ScanningSequence": "EP", "SequenceName": "*epfid2d1_64", "SequenceVariant": "SK", "SeriesDescription": "cmrr_mbep2d_bold_Pictures_AP", "SeriesNumber": 10, "ShimSetting": [-3598, -7401, 3859, 832, -74, 369, -222, -36], "SliceThickness": 3, "SliceTiming": [0.26, 0, 0.3275, 0.065, 0.3925, 0.13, 0.4575, 0.195, 0.5225, 0.26, 0, 0.3275, 0.065, 0.3925, 0.13, 0.4575, 0.195, 0.5225, 0.26, 0, 0.3275, 0.065, 0.3925, 0.13, 0.4575, 0.195, 0.5225, 0.26, 0, 0.3275, 0.065, 0.3925, 0.13, 0.4575, 0.195, 0.5225], "SoftwareVersions": "syngo MR E11", "SpacingBetweenSlices": 3.3, "StationName": "AWP166182", "TaskName": "pictures", "TotalReadoutTime": 0.0340202, "TxRefAmp": 241.513, "dcmmeta_affine": [[-2.995814323425293, 0.11508756130933762, 0.11975223571062088, 91.05093383789062], [0.10549063980579376, 2.9872753620147705, -0.28057175874710083, -100.84680938720703], [0.11818885058164597, 0.25088125467300415, 3.285869598388672, -108.38166046142578], [0.0, 0.0, 0.0, 1.0]], "dcmmeta_reorient_transform": [[0.0, -1.0, 0.0, 63.0], [1.0, 0.0, 0.0, 0.0], [0.0, 0.0, 1.0, 0.0], [0.0, 0.0, 0.0, 1.0]], "dcmmeta_shape": [64, 64, 36, 139], "dcmmeta_slice_dim": 2, "dcmmeta_version": 0.6, "global": {"const": {"AcquisitionMatrix": [64, 0, 0, 64], "AngioFlag": "N", "BitsAllocated": 16, "BitsStored": 12, "BodyPartExamined": "BRAIN", "Columns": 384, "EchoNumbers": 1, "EchoTime": 32.0, "EchoTrainLength": 64, "FlipAngle": 40.0, "HighBit": 11, "ImageOrientationPatient": [0.9986047555731, -0.0351635468821, 0.03939628304108, 0.03836251934772, 0.99575841810243, -0.0836270882397], "ImagePositionPatient": [-596.04574530221, -548.43707193985, -71.345352348178], "ImageType": ["ORIGINAL", "PRIMARY", "M", "ND", "NORM", "MOSAIC"], "ImagedNucleus": "1H", "ImagingFrequency": 123.257528, "InPlanePhaseEncodingDirection": "COL", "MRAcquisitionType": "2D", "MagneticFieldStrength": 3.0, "Manufacturer": "SIEMENS", "ManufacturerModelName": "Prisma", "Modality": "MR", "NumberOfAverages": 1.0, "NumberOfPhaseEncodingSteps": 64, "PercentPhaseFieldOfView": 100.0, "PercentSampling": 100.0, "PerformedProcedureStepStartTime": "124152.454000", "PhotometricInterpretation": "MONOCHROME2", "PixelBandwidth": 2300.0, "PixelRepresentation": 0, "PixelSpacing": [3.0, 3.0], "ProtocolName": "cmrr_mbep2d_bold_Pictures_AP", "RepetitionTime": 610.0, "Rows": 384, "SAR": 0.37697140182996, "SamplesPerPixel": 1, "ScanOptions": "FS", "ScanningSequence": "EP", "SequenceName": "*epfid2d1_64", "SequenceVariant": "SK", "SeriesDescription": "cmrr_mbep2d_bold_Pictures_AP", "SeriesNumber": 10, "SeriesTime": "130914.926000", "SliceLocation": -96.039295223189, "SliceThickness": 3.0, "SmallestImagePixelValue": 0, "SoftwareVersions": "syngo MR E11", "SpacingBetweenSlices": 3.3000000178306, "SpecificCharacterSet": "ISO_IR 100", "StudyID": "1", "StudyTime": "124152.269000", "TransmitCoilName": "Body", "VariableFlipAngleFlag": "N", "WindowCenterWidthExplanation": "Algo1"}, "slices": {}}, "time": {"samples": {"AcquisitionNumber": [1, 2, 3, 4, 5, 6, 7, 8, 9, 10, 11, 12, 13, 14, 15, 16, 17, 18, 19, 20, 21, 22, 23, 24, 25, 26, 27, 28, 29, 30, 31, 32, 33, 34, 35, 36, 37, 38, 39, 40, 41, 42, 43, 44, 45, 46, 47, 48, 49, 50, 51, 52, 53, 54, 55, 56, 57, 58, 59, 60, 61, 62, 63, 64, 65, 66, 67, 68, 69, 70, 71, 72, 73, 74, 75, 76, 77, 78, 79, 80, 81, 82, 83, 84, 85, 86, 87, 88, 89, 90, 91, 92, 93, 94, 95, 96, 97, 98, 99, 100, 101, 102, 103, 104, 105, 106, 107, 108, 109, 110, 111, 112, 113, 114, 115, 116, 117, 118, 119, 120, 121, 122, 123, 124, 125, 126, 127, 128, 129, 130, 131, 132, 133, 134, 135, 136, 137, 138, 139], "AcquisitionTime": ["130850.682500", "130851.292500", "130851.902500", "130852.512500", "130853.122500", "130853.732500", "130854.342500", "130854.952500", "130855.562500", "130856.172500", "130856.782500", "130857.392500", "130858.002500", "130858.612500", "130859.222500", "130859.832500", "130900.442500", "130901.052500", "130901.662500", "130902.272500", "130902.882500", "130903.492500", "130904.102500", "130904.712500", "130905.322500", "130905.932500", "130906.542500", "130907.152500", "130907.762500", "130908.372500", "130908.982500", "130909.592500", "130910.202500", "130910.812500", "130911.422500", "130912.032500", "130912.642500", "130913.252500", "130913.862500", "130914.472500", "130915.082500", "130915.692500", "130916.302500", "130916.912500", "130917.522500", "130918.132500", "130918.742500", "130919.352500", "130919.962500", "130920.572500", "130921.182500", "130921.792500", "130922.402500", "130923.012500", "130923.622500", "130924.232500", "130924.842500", "130925.452500", "130926.062500", "130926.672500", "130927.282500", "130927.892500", "130928.502500", "130929.112500", "130929.722500", "130930.332500", "130930.942500", "130931.552500", "130932.162500", "130932.772500", "130933.382500", "130933.992500", "130934.602500", "130935.212500", "130935.822500", "130936.432500", "130937.042500", "130937.652500", "130938.262500", "130938.872500", "130939.482500", "130940.092500", "130940.702500", "130941.312500", "130941.922500", "130942.532500", "130943.142500", "130943.752500", "130944.362500", "130944.972500", "130945.582500", "130946.192500", "130946.802500", "130947.412500", "130948.022500", "130948.632500", "130949.242500", "130949.852500", "130950.462500", "130951.072500", "130951.682500", "130952.292500", "130952.902500", "130953.512500", "130954.122500", "130954.732500", "130955.342500", "130955.952500", "130956.562500", "130957.172500", "130957.782500", "130958.392500", "130959.002500", "130959.612500", "131000.222500", "131000.832500", "131001.442500", "131002.052500", "131002.662500", "131003.272500", "131003.882500", "131004.492500", "131005.102500", "131005.712500", "131006.322500", "131006.932500", "131007.542500", "131008.152500", "131008.762500", "131009.372500", "131009.982500", "131010.592500", "131011.202500", "131011.812500", "131012.422500", "131013.032500", "131013.642500", "131014.252500", "131014.862500"], "ContentTime": ["130914.929000", "130914.933000", "130914.935000", "130914.938000", "130914.941000", "130914.943000", "130914.946000", "130914.948000", "130914.950000", "130914.953000", "130914.955000", "130914.958000", "130914.960000", "130914.962000", "130914.965000", "130914.967000", "130914.970000", "130914.975000", "130914.977000", "130914.980000", "130914.982000", "130914.987000", "130914.989000", "130914.992000", "130914.994000", "130914.996000", "130915.000000", "130915.002000", "130915.005000", "130915.007000", "130915.010000", "130915.012000", "130915.015000", "130915.017000", "130915.019000", "130915.022000", "130915.024000", "130915.027000", "130934.924000", "130934.927000", "130934.929000", "130934.932000", "130934.934000", "130934.937000", "130934.939000", "130934.942000", "130934.944000", "130934.947000", "130934.949000", "130934.952000", "130934.954000", "130934.957000", "130934.959000", "130934.961000", "130934.964000", "130934.966000", "130934.969000", "130934.971000", "130934.974000", "130934.976000", "130934.978000", "130934.981000", "130934.983000", "130934.986000", "130934.988000", "130934.990000", "130934.993000", "130934.995000", "130934.998000", "130935.001000", "130935.003000", "130954.925000", "130954.928000", "130954.930000", "130954.933000", "130954.936000", "130954.938000", "130954.940000", "130954.943000", "130954.945000", "130954.948000", "130954.950000", "130954.953000", "130954.955000", "130954.965000", "130954.968000", "130954.970000", "130954.973000", "130954.975000", "130954.978000", "130954.980000", "130954.983000", "130954.985000", "130954.988000", "130954.990000", "130954.993000", "130954.995000", "130954.998000", "130955.001000", "130955.004000", "130955.006000", "130955.009000", "130955.011000", "130955.014000", "131014.924000", "131014.927000", "131014.929000", "131014.932000", "131014.934000", "131014.937000", "131014.939000", "131014.941000", "131014.944000", "131014.946000", "131014.949000", "131014.951000", "131014.954000", "131014.956000", "131014.958000", "131014.961000", "131014.963000", "131014.966000", "131014.968000", "131014.971000", "131014.973000", "131014.975000", "131014.978000", "131014.980000", "131014.983000", "131014.985000", "131014.987000", "131014.995000", "131014.998000", "131015.001000", "131015.004000", "131015.006000", "131015.009000", "131016.871000", "131016.874000"], "InstanceCreationTime": ["130914.929000", "130914.933000", "130914.935000", "130914.938000", "130914.941000", "130914.943000", "130914.946000", "130914.948000", "130914.950000", "130914.953000", "130914.955000", "130914.958000", "130914.960000", "130914.962000", "130914.965000", "130914.967000", "130914.970000", "130914.975000", "130914.977000", "130914.980000", "130914.982000", "130914.987000", "130914.989000", "130914.992000", "130914.994000", "130914.996000", "130915.000000", "130915.002000", "130915.005000", "130915.007000", "130915.010000", "130915.012000", "130915.015000", "130915.017000", "130915.019000", "130915.022000", "130915.024000", "130915.027000", "130934.924000", "130934.927000", "130934.929000", "130934.932000", "130934.934000", "130934.937000", "130934.939000", "130934.942000", "130934.944000", "130934.947000", "130934.949000", "130934.952000", "130934.954000", "130934.957000", "130934.959000", "130934.961000", "130934.964000", "130934.966000", "130934.969000", "130934.971000", "130934.974000", "130934.976000", "130934.978000", "130934.981000", "130934.983000", "130934.986000", "130934.988000", "130934.990000", "130934.993000", "130934.995000", "130934.998000", "130935.001000", "130935.003000", "130954.925000", "130954.928000", "130954.930000", "130954.933000", "130954.936000", "130954.938000", "130954.940000", "130954.943000", "130954.945000", "130954.948000", "130954.950000", "130954.953000", "130954.955000", "130954.965000", "130954.968000", "130954.970000", "130954.973000", "130954.975000", "130954.978000", "130954.980000", "130954.983000", "130954.985000", "130954.988000", "130954.990000", "130954.993000", "130954.995000", "130954.998000", "130955.001000", "130955.004000", "130955.006000", "130955.009000", "130955.011000", "130955.014000", "131014.924000", "131014.927000", "131014.929000", "131014.932000", "131014.934000", "131014.937000", "131014.939000", "131014.941000", "131014.944000", "131014.946000", "131014.949000", "131014.951000", "131014.954000", "131014.956000", "131014.958000", "131014.961000", "131014.963000", "131014.966000", "131014.968000", "131014.971000", "131014.973000", "131014.975000", "131014.978000", "131014.980000", "131014.983000", "131014.985000", "131014.987000", "131014.995000", "131014.998000", "131015.001000", "131015.004000", "131015.006000", "131015.009000", "131016.871000", "131016.874000"], "InstanceNumber": [1, 2, 3, 4, 5, 6, 7, 8, 9, 10, 11, 12, 13, 14, 15, 16, 17, 18, 19, 20, 21, 22, 23, 24, 25, 26, 27, 28, 29, 30, 31, 32, 33, 34, 35, 36, 37, 38, 39, 40, 41, 42, 43, 44, 45, 46, 47, 48, 49, 50, 51, 52, 53, 54, 55, 56, 57, 58, 59, 60, 61, 62, 63, 64, 65, 66, 67, 68, 69, 70, 71, 72, 73, 74, 75, 76, 77, 78, 79, 80, 81, 82, 83, 84, 85, 86, 87, 88, 89, 90, 91, 92, 93, 94, 95, 96, 97, 98, 99, 100, 101, 102, 103, 104, 105, 106, 107, 108, 109, 110, 111, 112, 113, 114, 115, 116, 117, 118, 119, 120, 121, 122, 123, 124, 125, 126, 127, 128, 129, 130, 131, 132, 133, 134, 135, 136, 137, 138, 139], "LargestImagePixelValue": [452, 477, 528, 457, 500, 455, 489, 462, 437, 452, 455, 438, 433, 422, 417, 456, 430, 423, 419, 422, 441, 416, 435, 481, 450, 452, 462, 470, 467, 458, 455, 438, 426, 426, 439, 451, 428, 424, 421, 455, 435, 477, 468, 456, 432, 511, 460, 433, 427, 464, 475, 460, 436, 417, 416, 417, 446, 437, 433, 425, 414, 427, 418, 472, 460, 462, 440, 440, 424, 428, 427, 458, 452, 428, 426, 418, 451, 429, 425, 420, 423, 423, 430, 457, 418, 446, 422, 431, 453, 449, 439, 432, 464, 445, 450, 454, 429, 423, 424, 422, 425, 427, 438, 431, 429, 422, 412, 450, 422, 424, 437, 414, 467, 438, 452, 433, 448, 430, 469, 445, 454, 442, 448, 430, 444, 439, 428, 425, 433, 443, 435, 434, 445, 474, 525, 475, 463, 471, 441], "WindowCenter": [283.0, 279.0, 269.0, 275.0, 275.0, 270.0, 275.0, 271.0, 269.0, 269.0, 273.0, 269.0, 274.0, 269.0, 260.0, 269.0, 267.0, 271.0, 272.0, 270.0, 272.0, 270.0, 269.0, 271.0, 274.0, 269.0, 276.0, 265.0, 271.0, 268.0, 275.0, 272.0, 269.0, 267.0, 268.0, 268.0, 271.0, 269.0, 267.0, 271.0, 271.0, 271.0, 269.0, 259.0, 264.0, 277.0, 273.0, 270.0, 267.0, 266.0, 274.0, 269.0, 268.0, 268.0, 270.0, 269.0, 268.0, 270.0, 271.0, 269.0, 272.0, 271.0, 261.0, 270.0, 271.0, 273.0, 270.0, 270.0, 269.0, 272.0, 270.0, 272.0, 271.0, 272.0, 272.0, 269.0, 275.0, 272.0, 272.0, 271.0, 271.0, 272.0, 272.0, 272.0, 267.0, 272.0, 276.0, 275.0, 269.0, 272.0, 258.0, 274.0, 275.0, 275.0, 271.0, 271.0, 274.0, 271.0, 271.0, 271.0, 271.0, 271.0, 271.0, 271.0, 272.0, 271.0, 264.0, 270.0, 270.0, 271.0, 275.0, 269.0, 274.0, 268.0, 275.0, 271.0, 271.0, 271.0, 271.0, 269.0, 273.0, 270.0, 269.0, 270.0, 273.0, 272.0, 270.0, 269.0, 270.0, 271.0, 270.0, 275.0, 272.0, 276.0, 268.0, 272.0, 271.0, 265.0, 267.0], "WindowWidth": [621.0, 613.0, 594.0, 607.0, 606.0, 596.0, 606.0, 598.0, 594.0, 594.0, 602.0, 593.0, 603.0, 595.0, 577.0, 595.0, 590.0, 598.0, 600.0, 597.0, 600.0, 596.0, 593.0, 597.0, 604.0, 594.0, 608.0, 587.0, 599.0, 592.0, 605.0, 601.0, 594.0, 590.0, 593.0, 593.0, 597.0, 594.0, 591.0, 598.0, 599.0, 597.0, 596.0, 575.0, 585.0, 610.0, 602.0, 595.0, 591.0, 588.0, 604.0, 595.0, 593.0, 592.0, 596.0, 594.0, 592.0, 596.0, 597.0, 595.0, 600.0, 597.0, 579.0, 597.0, 598.0, 602.0, 597.0, 597.0, 595.0, 600.0, 597.0, 599.0, 598.0, 601.0, 600.0, 594.0, 605.0, 599.0, 599.0, 598.0, 599.0, 601.0, 599.0, 600.0, 591.0, 600.0, 608.0, 605.0, 595.0, 601.0, 574.0, 604.0, 606.0, 606.0, 598.0, 597.0, 604.0, 599.0, 598.0, 598.0, 598.0, 598.0, 598.0, 598.0, 599.0, 597.0, 584.0, 597.0, 596.0, 598.0, 607.0, 596.0, 604.0, 592.0, 606.0, 598.0, 599.0, 598.0, 599.0, 595.0, 603.0, 597.0, 594.0, 597.0, 601.0, 600.0, 596.0, 595.0, 596.0, 599.0, 597.0, 606.0, 600.0, 609.0, 593.0, 600.0, 599.0, 586.0, 591.0]}, "slices": {}}, "EventTimestamp": "13-10-58"}