{"AcquisitionMatrixPE": 64, "AcquisitionNumber": 1, "AcquisitionTime": "10:03:43.680000", "BandwidthPerPixelPhaseEncode": 28.935, "BaseResolution": 64, "BodyPartExamined": "BRAIN", "CoilCombinationMethod": "Sum of Squares", "ConsistencyInfo": "N4_VE11E_LATEST_20181129", "ConversionSoftware": "dcm2niix", "ConversionSoftwareVersion": "v1.0.20230411", "DerivedVendorReportedEchoSpacing": 0.000540003, "DeviceSerialNumber": "166182", "DwellTime": 3.4e-06, "EchoTime": 0.032, "EchoTrainLength": 64, "EffectiveEchoSpacing": 0.000540003, "FlipAngle": 40, "HeudiconvVersion": "0.13.1", "ImageOrientationPatientDICOM": [0.992807, 0.110375, -0.0463817, -0.116101, 0.982165, -0.14789], "ImageOrientationText": "Tra>Cor(-8.8)>Sag(-1.7)", "ImageType": ["ORIGINAL", "PRIMARY", "M", "ND", "NORM", "MOSAIC"], "ImagingFrequency": 123.254707, "InPlanePhaseEncodingDirectionDICOM": "COL", "InstitutionAddress": "PEARSE STREET .,City,District,IE,D2", "InstitutionName": "TCIN", "InstitutionalDepartmentName": "MRI", "MRAcquisitionType": "2D", "MagneticFieldStrength": 3, "Manufacturer": "Siemens", "ManufacturersModelName": "Prisma", "Modality": "MR", "MultibandAccelerationFactor": 4, "NonlinearGradientCorrection": false, "PartialFourier": 1, "PatientPosition": "HFS", "PercentPhaseFOV": 100, "PercentSampling": 100, "PhaseEncodingDirection": "j-", "PhaseEncodingSteps": 64, "PhaseResolution": 1, "PixelBandwidth": 2300, "ProcedureStepDescription": "Rhodri^Head BOLD", "ProtocolName": "cmrr_mbep2d_Pictures_AP_RDS", "PulseSequenceDetails": "%SiemensSeq%\\ep2d_bold", "ReceiveCoilActiveElements": "HC2,4,6,7", "ReceiveCoilName": "HeadNeck_64", "ReconMatrixPE": 64, "RefLinesPE": 12, "RepetitionTime": 0.61, "SAR": 0.31273, "ScanOptions": "FS", "ScanningSequence": "EP", "SequenceName": "*epfid2d1_64", "SequenceVariant": "SK", "SeriesDescription": "cmrr_mbep2d_Pictures_AP_RDS", "SeriesNumber": 8, "ShimSetting": [-3672, -7395, 3940, 643, 103, 369, -117, -37], "SliceThickness": 3, "SliceTiming": [0.2625, 0, 0.3275, 0.0675, 0.395, 0.1325, 0.46, 0.1975, 0.525, 0.2625, 0, 0.3275, 0.0675, 0.395, 0.1325, 0.46, 0.1975, 0.525, 0.2625, 0, 0.3275, 0.0675, 0.395, 0.1325, 0.46, 0.1975, 0.525, 0.2625, 0, 0.3275, 0.0675, 0.395, 0.1325, 0.46, 0.1975, 0.525], "SoftwareVersions": "syngo MR E11", "SpacingBetweenSlices": 3.3, "StationName": "AWP166182", "TaskName": "pictures", "TotalReadoutTime": 0.0340202, "TxRefAmp": 257.348, "dcmmeta_affine": [[-2.978421449661255, -0.34830325841903687, -0.09646252542734146, 109.46092224121094], [-0.3311252295970917, 2.9464962482452393, -0.5022982954978943, -86.61209869384766], [-0.13914504647254944, 0.44367119669914246, 3.2601213455200195, -88.87998962402344], [0.0, 0.0, 0.0, 1.0]], "dcmmeta_reorient_transform": [[0.0, -1.0, 0.0, 63.0], [1.0, 0.0, 0.0, 0.0], [0.0, 0.0, 1.0, 0.0], [0.0, 0.0, 0.0, 1.0]], "dcmmeta_shape": [64, 64, 36, 510], "dcmmeta_slice_dim": 2, "dcmmeta_version": 0.6, "global": {"const": {"AcquisitionMatrix": [64, 0, 0, 64], "AngioFlag": "N", "BitsAllocated": 16, "BitsStored": 12, "BodyPartExamined": "BRAIN", "Columns": 384, "EchoNumbers": 1, "EchoTime": 32.0, "EchoTrainLength": 64, "FlipAngle": 40.0, "HighBit": 11, "ImageOrientationPatient": [0.99280717297898, 0.11037507449351, -0.0463816797027, -0.1161010846502, 0.98216544848899, -0.1478903983951], "ImagePositionPatient": [-508.33674082435, -623.4366205615, 32.32189008004], "ImageType": ["ORIGINAL", "PRIMARY", "M", "ND", "NORM", "MOSAIC"], "ImagedNucleus": "1H", "ImagingFrequency": 123.254707, "InPlanePhaseEncodingDirection": "COL", "MRAcquisitionType": "2D", "MagneticFieldStrength": 3.0, "Manufacturer": "SIEMENS", "ManufacturerModelName": "Prisma", "Modality": "MR", "NumberOfAverages": 1.0, "NumberOfPhaseEncodingSteps": 64, "PercentPhaseFieldOfView": 100.0, "PercentSampling": 100.0, "PerformedProcedureStepStartTime": "095007.808000", "PhotometricInterpretation": "MONOCHROME2", "PixelBandwidth": 2300.0, "PixelRepresentation": 0, "PixelSpacing": [3.0, 3.0], "ProtocolName": "cmrr_mbep2d_Pictures_AP_RDS", "RepetitionTime": 610.0, "Rows": 384, "SAR": 0.31273030938403, "SamplesPerPixel": 1, "ScanOptions": "FS", "ScanningSequence": "EP", "SequenceName": "*epfid2d1_64", "SequenceVariant": "SK", "SeriesDescription": "cmrr_mbep2d_Pictures_AP_RDS", "SeriesNumber": 8, "SeriesTime": "100357.663000", "SliceLocation": -77.82222098628, "SliceThickness": 3.0, "SmallestImagePixelValue": 0, "SoftwareVersions": "syngo MR E11", "SpacingBetweenSlices": 3.2999998941999, "SpecificCharacterSet": "ISO_IR 100", "StudyID": "1", "StudyTime": "095007.666000", "TransmitCoilName": "Body", "VariableFlipAngleFlag": "N", "WindowCenterWidthExplanation": "Algo1"}, "slices": {}}, "time": {"samples": {"AcquisitionNumber": [1, 2, 3, 4, 5, 6, 7, 8, 9, 10, 11, 12, 13, 14, 15, 16, 17, 18, 19, 20, 21, 22, 23, 24, 25, 26, 27, 28, 29, 30, 31, 32, 33, 34, 35, 36, 37, 38, 39, 40, 41, 42, 43, 44, 45, 46, 47, 48, 49, 50, 51, 52, 53, 54, 55, 56, 57, 58, 59, 60, 61, 62, 63, 64, 65, 66, 67, 68, 69, 70, 71, 72, 73, 74, 75, 76, 77, 78, 79, 80, 81, 82, 83, 84, 85, 86, 87, 88, 89, 90, 91, 92, 93, 94, 95, 96, 97, 98, 99, 100, 101, 102, 103, 104, 105, 106, 107, 108, 109, 110, 111, 112, 113, 114, 115, 116, 117, 118, 119, 120, 121, 122, 123, 124, 125, 126, 127, 128, 129, 130, 131, 132, 133, 134, 135, 136, 137, 138, 139, 140, 141, 142, 143, 144, 145, 146, 147, 148, 149, 150, 151, 152, 153, 154, 155, 156, 157, 158, 159, 160, 161, 162, 163, 164, 165, 166, 167, 168, 169, 170, 171, 172, 173, 174, 175, 176, 177, 178, 179, 180, 181, 182, 183, 184, 185, 186, 187, 188, 189, 190, 191, 192, 193, 194, 195, 196, 197, 198, 199, 200, 201, 202, 203, 204, 205, 206, 207, 208, 209, 210, 211, 212, 213, 214, 215, 216, 217, 218, 219, 220, 221, 222, 223, 224, 225, 226, 227, 228, 229, 230, 231, 232, 233, 234, 235, 236, 237, 238, 239, 240, 241, 242, 243, 244, 245, 246, 247, 248, 249, 250, 251, 252, 253, 254, 255, 256, 257, 258, 259, 260, 261, 262, 263, 264, 265, 266, 267, 268, 269, 270, 271, 272, 273, 274, 275, 276, 277, 278, 279, 280, 281, 282, 283, 284, 285, 286, 287, 288, 289, 290, 291, 292, 293, 294, 295, 296, 297, 298, 299, 300, 301, 302, 303, 304, 305, 306, 307, 308, 309, 310, 311, 312, 313, 314, 315, 316, 317, 318, 319, 320, 321, 322, 323, 324, 325, 326, 327, 328, 329, 330, 331, 332, 333, 334, 335, 336, 337, 338, 339, 340, 341, 342, 343, 344, 345, 346, 347, 348, 349, 350, 351, 352, 353, 354, 355, 356, 357, 358, 359, 360, 361, 362, 363, 364, 365, 366, 367, 368, 369, 370, 371, 372, 373, 374, 375, 376, 377, 378, 379, 380, 381, 382, 383, 384, 385, 386, 387, 388, 389, 390, 391, 392, 393, 394, 395, 396, 397, 398, 399, 400, 401, 402, 403, 404, 405, 406, 407, 408, 409, 410, 411, 412, 413, 414, 415, 416, 417, 418, 419, 420, 421, 422, 423, 424, 425, 426, 427, 428, 429, 430, 431, 432, 433, 434, 435, 436, 437, 438, 439, 440, 441, 442, 443, 444, 445, 446, 447, 448, 449, 450, 451, 452, 453, 454, 455, 456, 457, 458, 459, 460, 461, 462, 463, 464, 465, 466, 467, 468, 469, 470, 471, 472, 473, 474, 475, 476, 477, 478, 479, 480, 481, 482, 483, 484, 485, 486, 487, 488, 489, 490, 491, 492, 493, 494, 495, 496, 497, 498, 499, 500, 501, 502, 503, 504, 505, 506, 507, 508, 509, 510], "AcquisitionTime": ["100343.680000", "100344.290000", "100344.900000", "100345.510000", "100346.120000", "100346.730000", "100347.340000", "100347.950000", "100348.560000", "100349.170000", "100349.780000", "100350.390000", "100351.000000", "100351.610000", "100352.220000", "100352.830000", "100353.440000", "100354.050000", "100354.660000", "100355.270000", "100355.880000", "100356.490000", "100357.100000", "100357.710000", "100358.320000", "100358.930000", "100359.540000", "100400.150000", "100400.760000", "100401.370000", "100401.980000", "100402.590000", "100403.200000", "100403.810000", "100404.420000", "100405.030000", "100405.640000", "100406.250000", "100406.860000", "100407.470000", "100408.080000", "100408.690000", "100409.300000", "100409.910000", "100410.520000", "100411.130000", "100411.740000", "100412.350000", "100412.960000", "100413.570000", "100414.180000", "100414.790000", "100415.400000", "100416.010000", "100416.620000", "100417.230000", "100417.840000", "100418.450000", "100419.060000", "100419.670000", "100420.280000", "100420.890000", "100421.500000", "100422.110000", "100422.720000", "100423.330000", "100423.940000", "100424.550000", "100425.160000", "100425.770000", "100426.380000", "100426.990000", "100427.600000", "100428.210000", "100428.820000", "100429.430000", "100430.040000", "100430.650000", "100431.260000", "100431.870000", "100432.480000", "100433.090000", "100433.700000", "100434.310000", "100434.920000", "100435.530000", "100436.140000", "100436.750000", "100437.360000", "100437.970000", "100438.580000", "100439.190000", "100439.800000", "100440.410000", "100441.020000", "100441.630000", "100442.240000", "100442.850000", "100443.460000", "100444.070000", "100444.680000", "100445.290000", "100445.900000", "100446.510000", "100447.120000", "100447.730000", "100448.340000", "100448.950000", "100449.560000", "100450.170000", "100450.780000", "100451.390000", "100452.000000", "100452.610000", "100453.220000", "100453.830000", "100454.440000", "100455.050000", "100455.660000", "100456.270000", "100456.880000", "100457.490000", "100458.100000", "100458.710000", "100459.320000", "100459.930000", "100500.540000", "100501.150000", "100501.760000", "100502.370000", "100502.980000", "100503.590000", "100504.200000", "100504.810000", "100505.420000", "100506.030000", "100506.640000", "100507.250000", "100507.860000", "100508.470000", "100509.080000", "100509.690000", "100510.300000", "100510.910000", "100511.520000", "100512.130000", "100512.740000", "100513.350000", "100513.960000", "100514.570000", "100515.180000", "100515.790000", "100516.400000", "100517.010000", "100517.620000", "100518.230000", "100518.840000", "100519.450000", "100520.060000", "100520.670000", "100521.280000", "100521.890000", "100522.500000", "100523.110000", "100523.720000", "100524.330000", "100524.940000", "100525.550000", "100526.160000", "100526.770000", "100527.380000", "100527.990000", "100528.600000", "100529.210000", "100529.820000", "100530.430000", "100531.040000", "100531.650000", "100532.260000", "100532.870000", "100533.480000", "100534.090000", "100534.700000", "100535.310000", "100535.920000", "100536.530000", "100537.140000", "100537.750000", "100538.360000", "100538.970000", "100539.580000", "100540.190000", "100540.800000", "100541.410000", "100542.020000", "100542.630000", "100543.240000", "100543.850000", "100544.460000", "100545.070000", "100545.680000", "100546.290000", "100546.900000", "100547.510000", "100548.120000", "100548.730000", "100549.340000", "100549.950000", "100550.560000", "100551.170000", "100551.780000", "100552.390000", "100553.000000", "100553.610000", "100554.220000", "100554.830000", "100555.440000", "100556.050000", "100556.660000", "100557.270000", "100557.880000", "100558.490000", "100559.100000", "100559.710000", "100600.320000", "100600.930000", "100601.540000", "100602.150000", "100602.760000", "100603.370000", "100603.980000", "100604.590000", "100605.200000", "100605.810000", "100606.420000", "100607.030000", "100607.640000", "100608.250000", "100608.860000", "100609.470000", "100610.080000", "100610.690000", "100611.300000", "100611.910000", "100612.520000", "100613.130000", "100613.740000", "100614.350000", "100614.960000", "100615.570000", "100616.180000", "100616.790000", "100617.400000", "100618.010000", "100618.620000", "100619.230000", "100619.840000", "100620.450000", "100621.060000", "100621.670000", "100622.280000", "100622.890000", "100623.500000", "100624.110000", "100624.720000", "100625.330000", "100625.940000", "100626.550000", "100627.160000", "100627.770000", "100628.380000", "100628.990000", "100629.600000", "100630.210000", "100630.820000", "100631.430000", "100632.040000", "100632.650000", "100633.260000", "100633.870000", "100634.480000", "100635.090000", "100635.700000", "100636.310000", "100636.920000", "100637.530000", "100638.140000", "100638.750000", "100639.360000", "100639.970000", "100640.580000", "100641.190000", "100641.800000", "100642.410000", "100643.020000", "100643.630000", "100644.240000", "100644.850000", "100645.460000", "100646.070000", "100646.680000", "100647.290000", "100647.900000", "100648.510000", "100649.120000", "100649.730000", "100650.340000", "100650.950000", "100651.560000", "100652.170000", "100652.780000", "100653.390000", "100654.000000", "100654.610000", "100655.220000", "100655.830000", "100656.440000", "100657.050000", "100657.660000", "100658.270000", "100658.880000", "100659.490000", "100700.100000", "100700.710000", "100701.320000", "100701.930000", "100702.540000", "100703.150000", "100703.760000", "100704.370000", "100704.980000", "100705.590000", "100706.200000", "100706.810000", "100707.420000", "100708.030000", "100708.640000", "100709.250000", "100709.860000", "100710.470000", "100711.080000", "100711.690000", "100712.300000", "100712.910000", "100713.520000", "100714.130000", "100714.740000", "100715.350000", "100715.960000", "100716.570000", "100717.180000", "100717.790000", "100718.400000", "100719.010000", "100719.620000", "100720.230000", "100720.840000", "100721.450000", "100722.060000", "100722.670000", "100723.280000", "100723.890000", "100724.500000", "100725.110000", "100725.720000", "100726.330000", "100726.940000", "100727.550000", "100728.160000", "100728.770000", "100729.380000", "100729.990000", "100730.600000", "100731.210000", "100731.820000", "100732.430000", "100733.040000", "100733.650000", "100734.260000", "100734.870000", "100735.480000", "100736.090000", "100736.700000", "100737.310000", "100737.920000", "100738.530000", "100739.140000", "100739.750000", "100740.360000", "100740.970000", "100741.580000", "100742.190000", "100742.800000", "100743.410000", "100744.020000", "100744.630000", "100745.240000", "100745.850000", "100746.460000", "100747.070000", "100747.680000", "100748.290000", "100748.900000", "100749.510000", "100750.120000", "100750.730000", "100751.340000", "100751.950000", "100752.560000", "100753.170000", "100753.780000", "100754.390000", "100755.000000", "100755.610000", "100756.220000", "100756.830000", "100757.440000", "100758.050000", "100758.660000", "100759.270000", "100759.880000", "100800.490000", "100801.100000", "100801.710000", "100802.320000", "100802.930000", "100803.540000", "100804.150000", "100804.760000", "100805.370000", "100805.980000", "100806.590000", "100807.200000", "100807.810000", "100808.420000", "100809.030000", "100809.640000", "100810.250000", "100810.860000", "100811.470000", "100812.080000", "100812.690000", "100813.300000", "100813.910000", "100814.520000", "100815.130000", "100815.740000", "100816.350000", "100816.960000", "100817.570000", "100818.180000", "100818.790000", "100819.400000", "100820.010000", "100820.620000", "100821.230000", "100821.840000", "100822.450000", "100823.060000", "100823.670000", "100824.280000", "100824.890000", "100825.500000", "100826.110000", "100826.720000", "100827.330000", "100827.940000", "100828.550000", "100829.160000", "100829.770000", "100830.380000", "100830.990000", "100831.600000", "100832.210000", "100832.820000", "100833.430000", "100834.040000", "100834.650000", "100835.260000", "100835.870000", "100836.480000", "100837.090000", "100837.700000", "100838.310000", "100838.920000", "100839.530000", "100840.140000", "100840.750000", "100841.360000", "100841.970000", "100842.580000", "100843.190000", "100843.800000", "100844.410000", "100845.020000", "100845.630000", "100846.240000", "100846.850000", "100847.460000", "100848.070000", "100848.680000", "100849.290000", "100849.900000", "100850.510000", "100851.120000", "100851.730000", "100852.340000", "100852.950000", "100853.560000", "100854.170000"], "ContentTime": ["100357.667000", "100357.670000", "100357.672000", "100357.675000", "100357.683000", "100357.685000", "100357.688000", "100357.690000", "100357.692000", "100357.695000", "100357.698000", "100357.700000", "100357.702000", "100357.705000", "100357.707000", "100357.710000", "100357.712000", "100357.714000", "100357.717000", "100357.719000", "100357.730000", "100357.732000", "100417.662000", "100417.665000", "100417.667000", "100417.670000", "100417.672000", "100417.675000", "100417.677000", "100417.679000", "100417.682000", "100417.687000", "100417.689000", "100417.692000", "100417.694000", "100417.697000", "100417.699000", "100417.701000", "100417.704000", "100417.706000", "100417.709000", "100417.711000", "100417.713000", "100417.716000", "100417.718000", "100417.722000", "100417.725000", "100417.727000", "100417.729000", "100417.732000", "100417.734000", "100417.737000", "100417.739000", "100417.741000", "100437.662000", "100437.665000", "100437.667000", "100437.670000", "100437.672000", "100437.675000", "100437.677000", "100437.679000", "100437.681000", "100437.684000", "100437.686000", "100437.689000", "100437.691000", "100437.693000", "100437.696000", "100437.698000", "100437.700000", "100437.703000", "100437.705000", "100437.708000", "100437.710000", "100437.712000", "100437.715000", "100437.717000", "100437.719000", "100437.722000", "100437.724000", "100437.727000", "100437.729000", "100437.731000", "100437.734000", "100437.736000", "100437.738000", "100457.662000", "100457.665000", "100457.667000", "100457.670000", "100457.672000", "100457.674000", "100457.677000", "100457.679000", "100457.682000", "100457.684000", "100457.686000", "100457.689000", "100457.691000", "100457.694000", "100457.696000", "100457.698000", "100457.701000", "100457.703000", "100457.705000", "100457.708000", "100457.710000", "100457.712000", "100457.715000", "100457.717000", "100457.720000", "100457.722000", "100457.724000", "100457.727000", "100457.729000", "100457.732000", "100457.757000", "100457.759000", "100457.761000", "100517.662000", "100517.665000", "100517.667000", "100517.670000", "100517.672000", "100517.674000", "100517.677000", "100517.679000", "100517.682000", "100517.684000", "100517.686000", "100517.689000", "100517.691000", "100517.693000", "100517.696000", "100517.698000", "100517.700000", "100517.703000", "100517.705000", "100517.708000", "100517.710000", "100517.712000", "100517.715000", "100517.717000", "100517.720000", "100517.722000", "100517.724000", "100517.727000", "100517.729000", "100517.731000", "100517.734000", "100517.736000", "100517.738000", "100537.662000", "100537.665000", "100537.668000", "100537.670000", "100537.673000", "100537.675000", "100537.678000", "100537.680000", "100537.683000", "100537.685000", "100537.688000", "100537.690000", "100537.692000", "100537.695000", "100537.698000", "100537.700000", "100537.702000", "100537.705000", "100537.707000", "100537.709000", "100537.712000", "100537.714000", "100537.717000", "100537.719000", "100537.721000", "100537.724000", "100537.726000", "100537.729000", "100537.731000", "100537.733000", "100537.736000", "100537.738000", "100557.663000", "100557.666000", "100557.668000", "100557.670000", "100557.673000", "100557.675000", "100557.679000", "100557.681000", "100557.684000", "100557.686000", "100557.688000", "100557.691000", "100557.693000", "100557.696000", "100557.698000", "100557.701000", "100557.703000", "100557.705000", "100557.708000", "100557.710000", "100557.713000", "100557.715000", "100557.717000", "100557.720000", "100557.722000", "100557.725000", "100557.727000", "100557.729000", "100557.732000", "100557.734000", "100557.737000", "100557.739000", "100557.742000", "100617.662000", "100617.665000", "100617.668000", "100617.670000", "100617.673000", "100617.675000", "100617.677000", "100617.680000", "100617.682000", "100617.685000", "100617.687000", "100617.690000", "100617.692000", "100617.695000", "100617.697000", "100617.700000", "100617.702000", "100617.704000", "100617.707000", "100617.709000", "100617.712000", "100617.714000", "100617.716000", "100617.719000", "100617.721000", "100617.724000", "100617.726000", "100617.728000", "100617.731000", "100617.733000", "100617.736000", "100617.738000", "100617.740000", "100637.662000", "100637.665000", "100637.668000", "100637.670000", "100637.673000", "100637.675000", "100637.678000", "100637.680000", "100637.682000", "100637.685000", "100637.687000", "100637.690000", "100637.692000", "100637.694000", "100637.697000", "100637.699000", "100637.702000", "100637.704000", "100637.706000", "100637.709000", "100637.711000", "100637.714000", "100637.716000", "100637.718000", "100637.721000", "100637.723000", "100637.732000", "100637.734000", "100637.737000", "100637.739000", "100637.741000", "100637.744000", "100637.746000", "100657.662000", "100657.665000", "100657.667000", "100657.670000", "100657.672000", "100657.674000", "100657.677000", "100657.679000", "100657.681000", "100657.684000", "100657.686000", "100657.689000", "100657.691000", "100657.693000", "100657.696000", "100657.698000", "100657.701000", "100657.703000", "100657.705000", "100657.708000", "100657.710000", "100657.712000", "100657.715000", "100657.717000", "100657.720000", "100657.722000", "100657.724000", "100657.727000", "100657.729000", "100657.731000", "100657.734000", "100657.736000", "100657.739000", "100717.662000", "100717.665000", "100717.668000", "100717.670000", "100717.672000", "100717.675000", "100717.677000", "100717.680000", "100717.682000", "100717.684000", "100717.687000", "100717.689000", "100717.692000", "100717.694000", "100717.696000", "100717.699000", "100717.701000", "100717.704000", "100717.706000", "100717.708000", "100717.711000", "100717.713000", "100717.716000", "100717.718000", "100717.720000", "100717.723000", "100717.725000", "100717.728000", "100717.730000", "100717.732000", "100717.735000", "100717.737000", "100737.662000", "100737.665000", "100737.667000", "100737.670000", "100737.673000", "100737.675000", "100737.677000", "100737.680000", "100737.682000", "100737.684000", "100737.687000", "100737.689000", "100737.692000", "100737.694000", "100737.696000", "100737.699000", "100737.701000", "100737.704000", "100737.706000", "100737.708000", "100737.711000", "100737.713000", "100737.716000", "100737.719000", "100737.722000", "100737.724000", "100737.727000", "100737.729000", "100737.732000", "100737.734000", "100737.736000", "100737.739000", "100737.741000", "100757.662000", "100757.665000", "100757.667000", "100757.670000", "100757.672000", "100757.675000", "100757.677000", "100757.680000", "100757.682000", "100757.685000", "100757.687000", "100757.689000", "100757.692000", "100757.694000", "100757.696000", "100757.699000", "100757.701000", "100757.704000", "100757.706000", "100757.708000", "100757.711000", "100757.713000", "100757.716000", "100757.718000", "100757.720000", "100757.723000", "100757.725000", "100757.728000", "100757.730000", "100757.732000", "100757.735000", "100757.737000", "100757.740000", "100817.663000", "100817.671000", "100817.674000", "100817.676000", "100817.678000", "100817.681000", "100817.683000", "100817.686000", "100817.688000", "100817.690000", "100817.693000", "100817.695000", "100817.697000", "100817.700000", "100817.702000", "100817.705000", "100817.707000", "100817.709000", "100817.712000", "100817.714000", "100817.717000", "100817.719000", "100817.722000", "100817.724000", "100817.726000", "100817.729000", "100817.731000", "100817.734000", "100817.736000", "100817.739000", "100817.741000", "100817.743000", "100817.746000", "100837.662000", "100837.665000", "100837.668000", "100837.670000", "100837.673000", "100837.675000", "100837.678000", "100837.680000", "100837.682000", "100837.685000", "100837.687000", "100837.690000", "100837.692000", "100837.694000", "100837.697000", "100837.699000", "100837.701000", "100837.704000", "100837.706000", "100837.709000", "100837.711000", "100837.713000", "100837.716000", "100837.718000", "100837.721000", "100837.723000", "100837.726000", "100837.728000", "100837.730000", "100837.733000", "100837.735000", "100837.737000", "100837.740000", "100855.307000", "100855.310000", "100855.313000", "100855.316000", "100855.318000", "100855.321000", "100855.323000", "100855.325000", "100855.328000", "100855.330000", "100855.333000", "100855.335000", "100855.338000", "100855.340000", "100855.342000", "100855.345000", "100855.348000", "100855.350000", "100855.352000", "100855.355000", "100855.357000", "100855.360000", "100855.362000", "100855.365000", "100855.367000", "100855.369000", "100855.372000", "100855.374000", "100855.377000"], "InstanceCreationTime": ["100357.667000", "100357.670000", "100357.672000", "100357.675000", "100357.683000", "100357.685000", "100357.688000", "100357.690000", "100357.692000", "100357.695000", "100357.698000", "100357.700000", "100357.702000", "100357.705000", "100357.707000", "100357.710000", "100357.712000", "100357.714000", "100357.717000", "100357.719000", "100357.730000", "100357.732000", "100417.662000", "100417.665000", "100417.667000", "100417.670000", "100417.672000", "100417.675000", "100417.677000", "100417.679000", "100417.682000", "100417.687000", "100417.689000", "100417.692000", "100417.694000", "100417.697000", "100417.699000", "100417.701000", "100417.704000", "100417.706000", "100417.709000", "100417.711000", "100417.713000", "100417.716000", "100417.718000", "100417.722000", "100417.725000", "100417.727000", "100417.729000", "100417.732000", "100417.734000", "100417.737000", "100417.739000", "100417.741000", "100437.662000", "100437.665000", "100437.667000", "100437.670000", "100437.672000", "100437.675000", "100437.677000", "100437.679000", "100437.681000", "100437.684000", "100437.686000", "100437.689000", "100437.691000", "100437.693000", "100437.696000", "100437.698000", "100437.700000", "100437.703000", "100437.705000", "100437.708000", "100437.710000", "100437.712000", "100437.715000", "100437.717000", "100437.719000", "100437.722000", "100437.724000", "100437.727000", "100437.729000", "100437.731000", "100437.734000", "100437.736000", "100437.738000", "100457.662000", "100457.665000", "100457.667000", "100457.670000", "100457.672000", "100457.674000", "100457.677000", "100457.679000", "100457.682000", "100457.684000", "100457.686000", "100457.689000", "100457.691000", "100457.694000", "100457.696000", "100457.698000", "100457.701000", "100457.703000", "100457.705000", "100457.708000", "100457.710000", "100457.712000", "100457.715000", "100457.717000", "100457.720000", "100457.722000", "100457.724000", "100457.727000", "100457.729000", "100457.732000", "100457.757000", "100457.759000", "100457.761000", "100517.662000", "100517.665000", "100517.667000", "100517.670000", "100517.672000", "100517.674000", "100517.677000", "100517.679000", "100517.682000", "100517.684000", "100517.686000", "100517.689000", "100517.691000", "100517.693000", "100517.696000", "100517.698000", "100517.700000", "100517.703000", "100517.705000", "100517.708000", "100517.710000", "100517.712000", "100517.715000", "100517.717000", "100517.720000", "100517.722000", "100517.724000", "100517.727000", "100517.729000", "100517.731000", "100517.734000", "100517.736000", "100517.738000", "100537.662000", "100537.665000", "100537.668000", "100537.670000", "100537.673000", "100537.675000", "100537.678000", "100537.680000", "100537.683000", "100537.685000", "100537.688000", "100537.690000", "100537.692000", "100537.695000", "100537.698000", "100537.700000", "100537.702000", "100537.705000", "100537.707000", "100537.709000", "100537.712000", "100537.714000", "100537.717000", "100537.719000", "100537.721000", "100537.724000", "100537.726000", "100537.729000", "100537.731000", "100537.733000", "100537.736000", "100537.738000", "100557.663000", "100557.666000", "100557.668000", "100557.670000", "100557.673000", "100557.675000", "100557.679000", "100557.681000", "100557.684000", "100557.686000", "100557.688000", "100557.691000", "100557.693000", "100557.696000", "100557.698000", "100557.701000", "100557.703000", "100557.705000", "100557.708000", "100557.710000", "100557.713000", "100557.715000", "100557.717000", "100557.720000", "100557.722000", "100557.725000", "100557.727000", "100557.729000", "100557.732000", "100557.734000", "100557.737000", "100557.739000", "100557.742000", "100617.662000", "100617.665000", "100617.668000", "100617.670000", "100617.673000", "100617.675000", "100617.677000", "100617.680000", "100617.682000", "100617.685000", "100617.687000", "100617.690000", "100617.692000", "100617.695000", "100617.697000", "100617.700000", "100617.702000", "100617.704000", "100617.707000", "100617.709000", "100617.712000", "100617.714000", "100617.716000", "100617.719000", "100617.721000", "100617.724000", "100617.726000", "100617.728000", "100617.731000", "100617.733000", "100617.736000", "100617.738000", "100617.740000", "100637.662000", "100637.665000", "100637.668000", "100637.670000", "100637.673000", "100637.675000", "100637.678000", "100637.680000", "100637.682000", "100637.685000", "100637.687000", "100637.690000", "100637.692000", "100637.694000", "100637.697000", "100637.699000", "100637.702000", "100637.704000", "100637.706000", "100637.709000", "100637.711000", "100637.714000", "100637.716000", "100637.718000", "100637.721000", "100637.723000", "100637.732000", "100637.734000", "100637.737000", "100637.739000", "100637.741000", "100637.744000", "100637.746000", "100657.662000", "100657.665000", "100657.667000", "100657.670000", "100657.672000", "100657.674000", "100657.677000", "100657.679000", "100657.681000", "100657.684000", "100657.686000", "100657.689000", "100657.691000", "100657.693000", "100657.696000", "100657.698000", "100657.701000", "100657.703000", "100657.705000", "100657.708000", "100657.710000", "100657.712000", "100657.715000", "100657.717000", "100657.720000", "100657.722000", "100657.724000", "100657.727000", "100657.729000", "100657.731000", "100657.734000", "100657.736000", "100657.739000", "100717.662000", "100717.665000", "100717.668000", "10