{"AcquisitionMatrixPE": 64, "AcquisitionNumber": 1, "AcquisitionTime": "10:14:25.697500", "BandwidthPerPixelPhaseEncode": 28.935, "BaseResolution": 64, "BodyPartExamined": "BRAIN", "CoilCombinationMethod": "Sum of Squares", "ConsistencyInfo": "N4_VE11E_LATEST_20181129", "ConversionSoftware": "dcm2niix", "ConversionSoftwareVersion": "v1.0.20230411", "DerivedVendorReportedEchoSpacing": 0.000540003, "DeviceSerialNumber": "166182", "DwellTime": 3.4e-06, "EchoTime": 0.032, "EchoTrainLength": 64, "EffectiveEchoSpacing": 0.000540003, "FlipAngle": 40, "HeudiconvVersion": "0.13.1", "ImageOrientationPatientDICOM": [0.992807, 0.110375, -0.0463817, -0.116101, 0.982165, -0.14789], "ImageOrientationText": "Tra>Cor(-8.8)>Sag(-1.7)", "ImageType": ["ORIGINAL", "PRIMARY", "M", "ND", "NORM", "MOSAIC"], "ImagingFrequency": 123.254708, "InPlanePhaseEncodingDirectionDICOM": "COL", "InstitutionAddress": "PEARSE STREET .,City,District,IE,D2", "InstitutionName": "TCIN", "InstitutionalDepartmentName": "MRI", "MRAcquisitionType": "2D", "MagneticFieldStrength": 3, "Manufacturer": "Siemens", "ManufacturersModelName": "Prisma", "Modality": "MR", "MultibandAccelerationFactor": 4, "NonlinearGradientCorrection": false, "PartialFourier": 1, "PatientPosition": "HFS", "PercentPhaseFOV": 100, "PercentSampling": 100, "PhaseEncodingDirection": "j-", "PhaseEncodingSteps": 64, "PhaseResolution": 1, "PixelBandwidth": 2300, "ProcedureStepDescription": "Rhodri^Head BOLD", "ProtocolName": "cmrr_mbep2d_Pictures_AP_RDS", "PulseSequenceDetails": "%SiemensSeq%\\ep2d_bold", "ReceiveCoilActiveElements": "HC2,4,6,7", "ReceiveCoilName": "HeadNeck_64", "ReconMatrixPE": 64, "RefLinesPE": 12, "RepetitionTime": 0.61, "SAR": 0.31273, "ScanOptions": "FS", "ScanningSequence": "EP", "SequenceName": "*epfid2d1_64", "SequenceVariant": "SK", "SeriesDescription": "cmrr_mbep2d_Pictures_AP_RDS", "SeriesNumber": 10, "ShimSetting": [-3672, -7395, 3940, 643, 103, 369, -117, -37], "SliceThickness": 3, "SliceTiming": [0.2625, 0, 0.33, 0.0675, 0.395, 0.1325, 0.46, 0.1975, 0.525, 0.2625, 0, 0.33, 0.0675, 0.395, 0.1325, 0.46, 0.1975, 0.525, 0.2625, 0, 0.33, 0.0675, 0.395, 0.1325, 0.46, 0.1975, 0.525, 0.2625, 0, 0.33, 0.0675, 0.395, 0.1325, 0.46, 0.1975, 0.525], "SoftwareVersions": "syngo MR E11", "SpacingBetweenSlices": 3.3, "StationName": "AWP166182", "TaskName": "pictures", "TotalReadoutTime": 0.0340202, "TxRefAmp": 257.348, "dcmmeta_affine": [[-2.978421449661255, -0.34830325841903687, -0.09646252542734146, 109.46092224121094], [-0.3311252295970917, 2.9464962482452393, -0.5022982954978943, -86.61209869384766], [-0.13914504647254944, 0.44367119669914246, 3.2601213455200195, -88.87998962402344], [0.0, 0.0, 0.0, 1.0]], "dcmmeta_reorient_transform": [[0.0, -1.0, 0.0, 63.0], [1.0, 0.0, 0.0, 0.0], [0.0, 0.0, 1.0, 0.0], [0.0, 0.0, 0.0, 1.0]], "dcmmeta_shape": [64, 64, 36, 368], "dcmmeta_slice_dim": 2, "dcmmeta_version": 0.6, "global": {"const": {"AcquisitionMatrix": [64, 0, 0, 64], "AngioFlag": "N", "BitsAllocated": 16, "BitsStored": 12, "BodyPartExamined": "BRAIN", "Columns": 384, "EchoNumbers": 1, "EchoTime": 32.0, "EchoTrainLength": 64, "FlipAngle": 40.0, "HighBit": 11, "ImageOrientationPatient": [0.99280717297898, 0.11037507449351, -0.0463816797027, -0.1161010846502, 0.98216544848899, -0.1478903983951], "ImagePositionPatient": [-508.33674082435, -623.4366205615, 32.32189008004], "ImageType": ["ORIGINAL", "PRIMARY", "M", "ND", "NORM", "MOSAIC"], "ImagedNucleus": "1H", "ImagingFrequency": 123.254708, "InPlanePhaseEncodingDirection": "COL", "MRAcquisitionType": "2D", "MagneticFieldStrength": 3.0, "Manufacturer": "SIEMENS", "ManufacturerModelName": "Prisma", "Modality": "MR", "NumberOfAverages": 1.0, "NumberOfPhaseEncodingSteps": 64, "PercentPhaseFieldOfView": 100.0, "PercentSampling": 100.0, "PerformedProcedureStepStartTime": "095007.808000", "PhotometricInterpretation": "MONOCHROME2", "PixelBandwidth": 2300.0, "PixelRepresentation": 0, "PixelSpacing": [3.0, 3.0], "ProtocolName": "cmrr_mbep2d_Pictures_AP_RDS", "RepetitionTime": 610.0, "Rows": 384, "SAR": 0.31273030938403, "SamplesPerPixel": 1, "ScanOptions": "FS", "ScanningSequence": "EP", "SequenceName": "*epfid2d1_64", "SequenceVariant": "SK", "SeriesDescription": "cmrr_mbep2d_Pictures_AP_RDS", "SeriesNumber": 10, "SeriesTime": "101457.576000", "SliceLocation": -77.82222098628, "SliceThickness": 3.0, "SmallestImagePixelValue": 0, "SoftwareVersions": "syngo MR E11", "SpacingBetweenSlices": 3.2999998941999, "SpecificCharacterSet": "ISO_IR 100", "StudyID": "1", "StudyTime": "095007.666000", "TransmitCoilName": "Body", "VariableFlipAngleFlag": "N", "WindowCenterWidthExplanation": "Algo1"}, "slices": {}}, "time": {"samples": {"AcquisitionNumber": [1, 2, 3, 4, 5, 6, 7, 8, 9, 10, 11, 12, 13, 14, 15, 16, 17, 18, 19, 20, 21, 22, 23, 24, 25, 26, 27, 28, 29, 30, 31, 32, 33, 34, 35, 36, 37, 38, 39, 40, 41, 42, 43, 44, 45, 46, 47, 48, 49, 50, 51, 52, 53, 54, 55, 56, 57, 58, 59, 60, 61, 62, 63, 64, 65, 66, 67, 68, 69, 70, 71, 72, 73, 74, 75, 76, 77, 78, 79, 80, 81, 82, 83, 84, 85, 86, 87, 88, 89, 90, 91, 92, 93, 94, 95, 96, 97, 98, 99, 100, 101, 102, 103, 104, 105, 106, 107, 108, 109, 110, 111, 112, 113, 114, 115, 116, 117, 118, 119, 120, 121, 122, 123, 124, 125, 126, 127, 128, 129, 130, 131, 132, 133, 134, 135, 136, 137, 138, 139, 140, 141, 142, 143, 144, 145, 146, 147, 148, 149, 150, 151, 152, 153, 154, 155, 156, 157, 158, 159, 160, 161, 162, 163, 164, 165, 166, 167, 168, 169, 170, 171, 172, 173, 174, 175, 176, 177, 178, 179, 180, 181, 182, 183, 184, 185, 186, 187, 188, 189, 190, 191, 192, 193, 194, 195, 196, 197, 198, 199, 200, 201, 202, 203, 204, 205, 206, 207, 208, 209, 210, 211, 212, 213, 214, 215, 216, 217, 218, 219, 220, 221, 222, 223, 224, 225, 226, 227, 228, 229, 230, 231, 232, 233, 234, 235, 236, 237, 238, 239, 240, 241, 242, 243, 244, 245, 246, 247, 248, 249, 250, 251, 252, 253, 254, 255, 256, 257, 258, 259, 260, 261, 262, 263, 264, 265, 266, 267, 268, 269, 270, 271, 272, 273, 274, 275, 276, 277, 278, 279, 280, 281, 282, 283, 284, 285, 286, 287, 288, 289, 290, 291, 292, 293, 294, 295, 296, 297, 298, 299, 300, 301, 302, 303, 304, 305, 306, 307, 308, 309, 310, 311, 312, 313, 314, 315, 316, 317, 318, 319, 320, 321, 322, 323, 324, 325, 326, 327, 328, 329, 330, 331, 332, 333, 334, 335, 336, 337, 338, 339, 340, 341, 342, 343, 344, 345, 346, 347, 348, 349, 350, 351, 352, 353, 354, 355, 356, 357, 358, 359, 360, 361, 362, 363, 364, 365, 366, 367, 368], "AcquisitionTime": ["101425.697500", "101426.307500", "101426.917500", "101427.527500", "101428.137500", "101428.747500", "101429.357500", "101429.967500", "101430.577500", "101431.187500", "101431.797500", "101432.407500", "101433.017500", "101433.627500", "101434.237500", "101434.847500", "101435.457500", "101436.067500", "101436.677500", "101437.287500", "101437.897500", "101438.507500", "101439.117500", "101439.727500", "101440.337500", "101440.947500", "101441.557500", "101442.167500", "101442.777500", "101443.387500", "101443.997500", "101444.607500", "101445.217500", "101445.827500", "101446.437500", "101447.047500", "101447.657500", "101448.267500", "101448.877500", "101449.487500", "101450.097500", "101450.707500", "101451.317500", "101451.927500", "101452.537500", "101453.147500", "101453.757500", "101454.367500", "101454.977500", "101455.587500", "101456.197500", "101456.807500", "101457.417500", "101458.027500", "101458.637500", "101459.247500", "101459.857500", "101500.467500", "101501.077500", "101501.687500", "101502.297500", "101502.907500", "101503.517500", "101504.127500", "101504.737500", "101505.347500", "101505.957500", "101506.567500", "101507.177500", "101507.787500", "101508.397500", "101509.007500", "101509.617500", "101510.227500", "101510.837500", "101511.447500", "101512.057500", "101512.667500", "101513.277500", "101513.887500", "101514.497500", "101515.107500", "101515.717500", "101516.327500", "101516.937500", "101517.547500", "101518.157500", "101518.767500", "101519.377500", "101519.987500", "101520.597500", "101521.207500", "101521.817500", "101522.427500", "101523.037500", "101523.647500", "101524.257500", "101524.867500", "101525.477500", "101526.087500", "101526.697500", "101527.307500", "101527.917500", "101528.527500", "101529.137500", "101529.747500", "101530.357500", "101530.967500", "101531.577500", "101532.187500", "101532.797500", "101533.407500", "101534.017500", "101534.627500", "101535.237500", "101535.847500", "101536.457500", "101537.067500", "101537.677500", "101538.287500", "101538.897500", "101539.507500", "101540.117500", "101540.727500", "101541.337500", "101541.947500", "101542.557500", "101543.167500", "101543.777500", "101544.387500", "101544.997500", "101545.607500", "101546.217500", "101546.827500", "101547.437500", "101548.047500", "101548.657500", "101549.267500", "101549.877500", "101550.487500", "101551.097500", "101551.707500", "101552.317500", "101552.927500", "101553.537500", "101554.147500", "101554.757500", "101555.367500", "101555.977500", "101556.587500", "101557.197500", "101557.807500", "101558.417500", "101559.027500", "101559.637500", "101600.247500", "101600.857500", "101601.467500", "101602.077500", "101602.687500", "101603.297500", "101603.907500", "101604.517500", "101605.127500", "101605.737500", "101606.347500", "101606.957500", "101607.567500", "101608.177500", "101608.787500", "101609.397500", "101610.007500", "101610.617500", "101611.227500", "101611.837500", "101612.447500", "101613.057500", "101613.667500", "101614.277500", "101614.887500", "101615.497500", "101616.107500", "101616.717500", "101617.327500", "101617.937500", "101618.547500", "101619.157500", "101619.767500", "101620.377500", "101620.987500", "101621.597500", "101622.207500", "101622.817500", "101623.427500", "101624.037500", "101624.647500", "101625.257500", "101625.867500", "101626.477500", "101627.087500", "101627.697500", "101628.307500", "101628.917500", "101629.527500", "101630.137500", "101630.747500", "101631.357500", "101631.967500", "101632.577500", "101633.187500", "101633.797500", "101634.407500", "101635.017500", "101635.627500", "101636.237500", "101636.847500", "101637.457500", "101638.067500", "101638.677500", "101639.287500", "101639.897500", "101640.507500", "101641.117500", "101641.727500", "101642.337500", "101642.947500", "101643.557500", "101644.167500", "101644.777500", "101645.387500", "101645.997500", "101646.607500", "101647.217500", "101647.827500", "101648.437500", "101649.047500", "101649.657500", "101650.267500", "101650.877500", "101651.487500", "101652.097500", "101652.707500", "101653.317500", "101653.927500", "101654.537500", "101655.147500", "101655.757500", "101656.367500", "101656.977500", "101657.587500", "101658.197500", "101658.807500", "101659.417500", "101700.027500", "101700.637500", "101701.247500", "101701.857500", "101702.467500", "101703.077500", "101703.687500", "101704.297500", "101704.907500", "101705.517500", "101706.127500", "101706.737500", "101707.347500", "101707.957500", "101708.567500", "101709.177500", "101709.787500", "101710.397500", "101711.007500", "101711.617500", "101712.227500", "101712.837500", "101713.447500", "101714.057500", "101714.667500", "101715.277500", "101715.887500", "101716.497500", "101717.107500", "101717.717500", "101718.327500", "101718.937500", "101719.547500", "101720.157500", "101720.767500", "101721.377500", "101721.987500", "101722.597500", "101723.207500", "101723.817500", "101724.427500", "101725.037500", "101725.647500", "101726.257500", "101726.867500", "101727.477500", "101728.087500", "101728.697500", "101729.307500", "101729.917500", "101730.527500", "101731.137500", "101731.747500", "101732.357500", "101732.967500", "101733.577500", "101734.187500", "101734.797500", "101735.407500", "101736.017500", "101736.627500", "101737.237500", "101737.847500", "101738.457500", "101739.067500", "101739.677500", "101740.287500", "101740.897500", "101741.507500", "101742.117500", "101742.727500", "101743.337500", "101743.947500", "101744.557500", "101745.167500", "101745.777500", "101746.387500", "101746.997500", "101747.607500", "101748.217500", "101748.827500", "101749.437500", "101750.047500", "101750.657500", "101751.267500", "101751.877500", "101752.487500", "101753.097500", "101753.707500", "101754.317500", "101754.927500", "101755.537500", "101756.147500", "101756.757500", "101757.367500", "101757.977500", "101758.587500", "101759.197500", "101759.807500", "101800.417500", "101801.027500", "101801.637500", "101802.247500", "101802.857500", "101803.467500", "101804.077500", "101804.687500", "101805.297500", "101805.907500", "101806.517500", "101807.127500", "101807.737500", "101808.347500", "101808.957500", "101809.567500"], "ContentTime": ["101457.580000", "101457.583000", "101457.586000", "101457.622000", "101457.624000", "101457.627000", "101457.629000", "101457.631000", "101457.634000", "101457.636000", "101457.638000", "101457.641000", "101457.643000", "101457.646000", "101457.648000", "101457.650000", "101457.653000", "101457.655000", "101457.657000", "101457.660000", "101457.662000", "101457.665000", "101457.667000", "101457.669000", "101457.672000", "101457.674000", "101457.676000", "101457.679000", "101457.681000", "101457.683000", "101457.686000", "101457.688000", "101457.690000", "101457.693000", "101457.695000", "101457.698000", "101457.705000", "101457.707000", "101457.710000", "101457.712000", "101457.715000", "101457.717000", "101457.719000", "101457.722000", "101457.724000", "101457.727000", "101457.729000", "101457.731000", "101457.734000", "101457.736000", "101517.576000", "101517.579000", "101517.581000", "101517.584000", "101517.586000", "101517.590000", "101517.592000", "101517.595000", "101517.597000", "101517.600000", "101517.602000", "101517.604000", "101517.607000", "101517.609000", "101517.612000", "101517.614000", "101517.616000", "101517.619000", "101517.621000", "101517.623000", "101517.626000", "101517.628000", "101517.631000", "101517.633000", "101517.635000", "101517.638000", "101517.640000", "101517.643000", "101517.645000", "101517.648000", "101517.650000", "101517.652000", "101517.655000", "101537.575000", "101537.578000", "101537.580000", "101537.583000", "101537.585000", "101537.588000", "101537.590000", "101537.593000", "101537.595000", "101537.598000", "101537.600000", "101537.602000", "101537.605000", "101537.607000", "101537.610000", "101537.612000", "101537.614000", "101537.617000", "101537.619000", "101537.622000", "101537.624000", "101537.626000", "101537.629000", "101537.631000", "101537.634000", "101537.636000", "101537.638000", "101537.641000", "101537.643000", "101537.646000", "101537.648000", "101537.650000", "101537.653000", "101557.575000", "101557.578000", "101557.580000", "101557.583000", "101557.585000", "101557.588000", "101557.590000", "101557.592000", "101557.595000", "101557.597000", "101557.600000", "101557.602000", "101557.604000", "101557.607000", "101557.609000", "101557.611000", "101557.614000", "101557.616000", "101557.619000", "101557.621000", "101557.624000", "101557.626000", "101557.629000", "101557.631000", "101557.633000", "101557.636000", "101557.638000", "101557.640000", "101557.643000", "101557.645000", "101557.648000", "101557.650000", "101557.652000", "101617.575000", "101617.578000", "101617.580000", "101617.582000", "101617.585000", "101617.588000", "101617.590000", "101617.592000", "101617.613000", "101617.615000", "101617.617000", "101617.620000", "101617.622000", "101617.625000", "101617.627000", "101617.629000", "101617.632000", "101617.634000", "101617.637000", "101617.639000", "101617.642000", "101617.644000", "101617.646000", "101617.649000", "101617.651000", "101617.653000", "101617.656000", "101617.658000", "101617.661000", "101617.663000", "101617.665000", "101617.668000", "101617.670000", "101637.575000", "101637.578000", "101637.580000", "101637.583000", "101637.585000", "101637.588000", "101637.590000", "101637.593000", "101637.595000", "101637.598000", "101637.600000", "101637.602000", "101637.605000", "101637.607000", "101637.609000", "101637.612000", "101637.614000", "101637.617000", "101637.619000", "101637.622000", "101637.624000", "101637.626000", "101637.629000", "101637.631000", "101637.633000", "101637.636000", "101637.638000", "101637.641000", "101637.643000", "101637.645000", "101637.648000", "101637.650000", "101657.575000", "101657.578000", "101657.580000", "101657.583000", "101657.585000", "101657.588000", "101657.590000", "101657.592000", "101657.595000", "101657.597000", "101657.599000", "101657.602000", "101657.604000", "101657.607000", "101657.609000", "101657.611000", "101657.614000", "101657.616000", "101657.618000", "101657.621000", "101657.623000", "101657.626000", "101657.629000", "101657.631000", "101657.634000", "101657.636000", "101657.639000", "101657.641000", "101657.643000", "101657.646000", "101657.648000", "101657.651000", "101657.653000", "101717.575000", "101717.578000", "101717.580000", "101717.583000", "101717.585000", "101717.588000", "101717.590000", "101717.593000", "101717.595000", "101717.598000", "101717.600000", "101717.602000", "101717.605000", "101717.607000", "101717.610000", "101717.612000", "101717.614000", "101717.617000", "101717.619000", "101717.622000", "101717.624000", "101717.627000", "101717.629000", "101717.631000", "101717.634000", "101717.636000", "101717.638000", "101717.641000", "101717.643000", "101717.646000", "101717.648000", "101717.650000", "101717.653000", "101737.576000", "101737.579000", "101737.581000", "101737.584000", "101737.586000", "101737.589000", "101737.591000", "101737.594000", "101737.596000", "101737.598000", "101737.601000", "101737.603000", "101737.605000", "101737.608000", "101737.610000", "101737.613000", "101737.615000", "101737.617000", "101737.620000", "101737.622000", "101737.625000", "101737.627000", "101737.629000", "101737.632000", "101737.634000", "101737.637000", "101737.639000", "101737.642000", "101737.644000", "101737.646000", "101737.649000", "101737.651000", "101737.654000", "101757.575000", "101757.578000", "101757.580000", "101757.583000", "101757.585000", "101757.588000", "101757.590000", "101757.593000", "101757.595000", "101757.597000", "101757.600000", "101757.602000", "101757.605000", "101757.607000", "101757.609000", "101757.612000", "101757.614000", "101757.617000", "101757.619000", "101757.622000", "101757.624000", "101757.626000", "101757.629000", "101757.631000", "101757.633000", "101757.636000", "101757.638000", "101757.641000", "101757.643000", "101757.645000", "101757.648000", "101757.650000", "101811.831000", "101811.834000", "101811.836000", "101811.839000", "101811.841000", "101811.843000", "101811.846000", "101811.848000", "101811.851000", "101811.853000", "101811.856000", "101811.858000", "101811.861000", "101811.864000", "101811.867000", "101811.869000", "101811.872000", "101811.874000", "101811.877000", "101811.880000", "101811.884000", "101811.887000", "101811.893000"], "InstanceCreationTime": ["101457.580000", "101457.583000", "101457.586000", "101457.622000", "101457.624000", "101457.627000", "101457.629000", "101457.631000", "101457.634000", "101457.636000", "101457.638000", "101457.641000", "101457.643000", "101457.646000", "101457.648000", "101457.650000", "101457.653000", "101457.655000", "101457.657000", "101457.660000", "101457.662000", "101457.665000", "101457.667000", "101457.669000", "101457.672000", "101457.674000", "101457.676000", "101457.679000", "101457.681000", "101457.683000", "101457.686000", "101457.688000", "101457.690000", "101457.693000", "101457.695000", "101457.698000", "101457.705000", "101457.707000", "101457.710000", "101457.712000", "101457.715000", "101457.717000", "101457.719000", "101457.722000", "101457.724000", "101457.727000", "101457.729000", "101457.731000", "101457.734000", "101457.736000", "101517.576000", "101517.579000", "101517.581000", "101517.584000", "101517.586000", "101517.590000", "101517.592000", "101517.595000", "101517.597000", "101517.600000", "101517.602000", "101517.604000", "101517.607000", "101517.609000", "101517.612000", "101517.614000", "101517.616000", "101517.619000", "101517.621000", "101517.623000", "101517.626000", "101517.628000", "101517.631000", "101517.633000", "101517.635000", "101517.638000", "101517.640000", "101517.643000", "101517.645000", "101517.648000", "101517.650000", "101517.652000", "101517.655000", "101537.575000", "101537.578000", "101537.580000", "101537.583000", "101537.585000", "101537.588000", "101537.590000", "101537.593000", "101537.595000", "101537.598000", "101537.600000", "101537.602000", "101537.605000", "101537.607000", "101537.610000", "101537.612000", "101537.614000", "101537.617000", "101537.619000", "101537.622000", "101537.624000", "101537.626000", "101537.629000", "101537.631000", "101537.634000", "101537.636000", "101537.638000", "101537.641000", "101537.643000", "101537.646000", "101537.648000", "101537.650000", "101537.653000", "101557.575000", "101557.578000", "101557.580000", "101557.583000", "101557.585000", "101557.588000", "101557.590000", "101557.592000", "101557.595000", "101557.597000", "101557.600000", "101557.602000", "101557.604000", "101557.607000", "101557.609000", "101557.611000", "101557.614000", "101557.616000", "101557.619000", "101557.621000", "101557.624000", "101557.626000", "101557.629000", "101557.631000", "101557.633000", "101557.636000", "101557.638000", "101557.640000", "101557.643000", "101557.645000", "101557.648000", "101557.650000", "101557.652000", "101617.575000", "101617.578000", "101617.580000", "101617.582000", "101617.585000", "101617.588000", "101617.590000", "101617.592000", "101617.613000", "101617.615000", "101617.617000", "101617.620000", "101617.622000", "101617.625000", "101617.627000", "101617.629000", "101617.632000", "101617.634000", "101617.637000", "101617.639000", "101617.642000", "101617.644000", "101617.646000", "101617.649000", "101617.651000", "101617.653000", "101617.656000", "101617.658000", "101617.661000", "101617.663000", "101617.665000", "101617.668000", "101617.670000", "101637.575000", "101637.578000", "101637.580000", "101637.583000", "101637.585000", "101637.588000", "101637.590000", "101637.593000", "101637.595000", "101637.598000", "101637.600000", "101637.602000", "101637.605000", "101637.607000", "101637.609000", "101637.612000", "101637.614000", "101637.617000", "101637.619000", "101637.622000", "101637.624000", "101637.626000", "101637.629000", "101637.631000", "101637.633000", "101637.636000", "101637.638000", "101637.641000", "101637.643000", "101637.645000", "101637.648000", "101637.650000", "101657.575000", "101657.578000", "101657.580000", "101657.583000", "101657.585000", "101657.588000", "101657.590000", "101657.592000", "101657.595000", "101657.597000", "101657.599000", "101657.602000", "101657.604000", "101657.607000", "101657.609000", "101657.611000", "101657.614000", "101657.616000", "101657.618000", "101657.621000", "101657.623000", "101657.626000", "101657.629000", "101657.631000", "101657.634000", "101657.636000", "101657.639000", "101657.641000", "101657.643000", "101657.646000", "101657.648000", "101657.651000", "101657.653000", "101717.575000", "101717.578000", "101717.580000", "101717.583000", "101717.585000", "101717.588000", "101717.590000", "101717.593000", "101717.595000", "101717.598000", "101717.600000", "101717.602000", "101717.605000", "101717.607000", "101717.610000", "101717.612000", "101717.614000", "101717.617000", "101717.619000", "101717.622000", "101717.624000", "101717.627000", "101717.629000", "101717.631000", "101717.634000", "101717.636000", "101717.638000", "101717.641000", "101717.643000", "101717.646000", "101717.648000", "101717.650000", "101717.653000", "101737.576000", "101737.579000", "101737.581000", "101737.584000", "101737.586000", "101737.589000", "101737.591000", "101737.594000", "101737.596000", "101737.598000", "101737.601000", "101737.603000", "101737.605000", "101737.608000", "101737.610000", "101737.613000", "101737.615000", "101737.617000", "101737.620000", "101737.622000", "101737.625000", "101737.627000", "101737.629000", "101737.632000", "101737.634000", "101737.637000", "101737.639000", "101737.642000", "101737.644000", "101737.646000", "101737.649000", "101737.651000", "101737.654000", "101757.575000", "101757.578000", "101757.580000", "101757.583000", "101757.585000", "101757.588000", "101757.590000", "101757.593000", "101757.595000", "101757.597000", "101757.600000", "101757.602000", "101757.605000", "101757.607000", "101757.609000", "101757.612000", "101757.614000", "101757.617000", "101757.619000", "101757.622000", "101757.624000", "101757.626000", "101757.629000", "101757.631000", "101757.633000", "101757.636000", "101757.638000", "101757.641000", "101757.643000", "101757.645000", "101757.648000", "101757.650000", "101811.831000", "101811.834000", "101811.836000", "101811.839000", "101811.841000", "101811.843000", "101811.846000", "101811.848000", "101811.851000", "101811.853000", "101811.856000", "101811.858000", "101811.861000", "101811.864000", "101811.867000", "101811.869000", "101811.872000", "101811.874000", "101811.877000", "101811.880000", "101811.884000", "101811.887000", "101811.893000"], "InstanceNumber": [1, 2, 3, 4, 5, 6, 7, 8, 9, 10, 11, 12, 13, 14, 15, 16, 17, 18, 19, 20, 21, 22, 23, 24, 25, 26, 27, 28, 29, 30, 31, 32, 33, 34, 35, 36, 37, 38, 39, 40, 41, 42, 43, 44, 45, 46, 47, 48, 49, 50, 51, 52, 53, 54, 55, 56, 57, 58, 59, 60, 61, 62, 63, 64, 65, 66, 67, 68, 69, 70, 71, 72, 73, 74, 75, 76, 77, 78, 79, 80, 81, 82, 83, 84, 85, 86, 87, 88, 89, 90, 91, 92, 93, 94, 95, 96, 97, 98, 99, 100, 101, 102, 103, 104, 105, 106, 107, 108, 109, 110, 111, 112, 113, 114, 115, 116, 117, 118, 119, 120, 121, 122, 123, 124, 125, 126, 127, 128, 129, 130, 131, 132, 133, 134, 135, 136, 137, 138, 139, 140, 141, 142, 143, 144, 145, 146, 147, 148, 149, 150, 151, 152, 153, 154, 155, 156, 157, 158, 159, 160, 161, 162, 163, 164, 165, 166, 167, 168, 169, 170, 171, 172, 173, 174, 175, 176, 177, 178, 179, 180, 181, 182, 183, 184, 185, 186, 187, 188, 189, 190, 191, 192, 193, 194, 195, 196, 197, 198, 199, 200, 201, 202, 203, 204, 205, 206, 207, 208, 209, 210, 211, 212, 213, 214, 215, 216, 217, 218, 219, 220, 221, 222, 223, 224, 225, 226, 227, 228, 229, 230, 231, 232, 233, 234, 235, 236, 237, 238, 239, 240, 241, 242, 243, 244, 245, 246, 247, 248, 249, 250, 251, 252, 253, 254, 255, 256, 257, 258, 259, 260, 261, 262, 263, 264, 265, 266, 267, 268, 269, 270, 271, 272, 273, 274, 275, 276, 277, 278, 279, 280, 281, 282, 283, 284, 285, 286, 287, 288, 289, 290, 291, 292, 293, 294, 295, 296, 297, 298, 299, 300, 301, 302, 303, 304, 305, 306, 307, 308, 309, 310, 311, 312, 313, 314, 315, 316, 317, 318, 319, 320, 321, 322, 323, 324, 325, 326, 327, 328, 329, 330, 331, 332, 333, 334, 335, 336, 337, 338, 339, 340, 341, 342, 343, 344, 345, 346, 347, 348, 349, 350, 351, 352, 353, 354, 355, 356, 357, 358, 359, 360, 361, 362, 363, 364, 365, 366, 367, 368], "LargestImagePixelValue": [900, 887, 855, 768, 836, 873, 786, 785, 746, 728, 853, 767, 816, 815, 761, 729, 872, 809, 817, 794, 740, 734, 870, 772, 792, 777, 734, 782, 835, 805, 803, 751, 732, 868, 791, 817, 804, 764, 726, 848, 825, 789, 780, 736, 724, 775, 837, 762, 792, 763, 723, 841, 756, 781, 737, 733, 842, 782, 759, 740, 822, 789, 781, 761, 756, 896, 815, 794, 796, 769, 905, 862, 810, 803, 792, 792, 833, 777, 790, 763, 737, 783, 829, 787, 799, 766, 730, 874, 770, 776, 787, 752, 747, 832, 776, 763, 777, 746, 739, 853, 781, 771, 730, 737, 813, 756, 756, 733, 733, 831, 783, 771, 729, 782, 858, 761, 769, 743, 770, 853, 843, 776, 748, 742, 765, 789, 757, 739, 747, 834, 816, 776, 750, 748, 777, 924, 807, 794, 762, 748, 743, 921, 852, 753, 748, 751, 738, 762, 857, 761, 744, 748, 739, 872, 768, 741, 748, 745, 850, 782, 743, 739, 884, 815, 756, 758, 739, 749, 916, 826, 795, 763, 784, 748, 775, 908, 801, 740, 750, 745, 742, 854, 750, 739, 752, 750, 759, 812, 752, 744, 759, 754, 810, 754, 753, 753, 866, 806, 762, 750, 755, 808, 880, 798, 781, 749, 748, 793, 875, 856, 827, 775, 837, 748, 751, 763, 747, 874, 786, 757, 757, 754, 751, 861, 752, 752, 757, 759, 874, 784, 780, 759, 755, 847, 875, 749, 786, 749, 757, 753, 908, 803, 821, 760, 749, 753, 819, 886, 765, 755, 755, 753, 762, 862, 756, 770, 758, 757, 761, 858, 752, 754, 756, 759, 791, 875, 777, 806, 787, 778, 763, 754, 794, 823, 746, 745, 767, 758, 881, 756, 764, 779, 761, 851, 816, 758, 772, 773, 811, 852, 980, 843, 788, 789, 783, 769, 836, 848, 846, 819, 821, 757, 788, 772, 754, 756, 754, 867, 836, 780, 752, 795, 761, 763, 809, 753, 769, 767, 759, 792, 840, 911, 955, 912, 775, 775, 796, 757, 767, 893, 767, 793, 778, 769, 764, 881, 759, 765, 766, 835, 767, 753, 774, 838, 760, 751, 826, 749, 755, 920, 1053, 931, 794, 799, 808, 846, 834, 823, 819, 844, 895, 816, 744, 788, 793, 749, 757, 884], "WindowCenter": [455.0, 452.0, 453.0, 449.0, 450.0, 451.0, 448.0, 449.0, 448.0, 447.0, 450.0, 448.0, 449.0, 450.0, 448.0, 446.0, 450.0, 449.0, 449.0, 448.0, 448.0, 447.0, 450.0, 449.0, 448.0, 449.0, 447.0, 447.0, 450.0, 448.0, 447.0, 447.0, 447.0, 450.0, 449.0, 448.0, 449.0, 448.0, 446.0, 449.0, 447.0, 447.0, 447.0, 446.0, 447.0, 449.0, 449.0, 448.0, 447.0, 446.0, 448.0, 449.0, 447.0, 449.0, 448.0, 448.0, 449.0, 449.0, 449.0, 448.0, 450.0, 449.0, 449.0, 449.0, 449.0, 451.0, 450.0, 449.0, 448.0, 449.0, 450.0, 448.0, 449.0, 447.0, 448.0, 448.0, 449.0, 448.0, 449.0, 447.0, 449.0, 449.0, 449.0, 450.0, 449.0, 447.0, 448.0, 450.0, 448.0, 449.0, 449.0, 448.0, 447.0, 449.0, 449.0, 448.0, 448.0, 448.0, 447.0, 449.0, 449.0, 450.0, 447.0, 448.0, 449.0, 449.0, 450.0, 448.0, 447.0, 450.0, 450.0, 449.0, 447.0, 449.0, 450.0, 448.0, 447.0, 448.0, 449.0, 449.0, 448.0, 448.0, 446.0, 446.0, 448.0, 448.0, 448.0, 448.0, 447.0, 451.0, 449.0, 448.0, 448.0, 448.0, 449.0, 450.0, 449.0, 447.0, 448.0, 446.0, 447.0, 450.0, 448.0, 447.0, 446.0, 448.0, 446.0, 446.0, 449.0, 448.0, 447.0, 447.0, 447.0, 450.0, 449.0, 448.0, 