{"AcquisitionMatrixPE": 64, "AcquisitionNumber": 1, "AcquisitionTime": "15:37:10.725000", "BandwidthPerPixelPhaseEncode": 28.935, "BaseResolution": 64, "BodyPartExamined": "BRAIN", "CoilCombinationMethod": "Sum of Squares", "ConsistencyInfo": "N4_VE11E_LATEST_20181129", "ConversionSoftware": "dcm2niix", "ConversionSoftwareVersion": "v1.0.20230411", "DerivedVendorReportedEchoSpacing": 0.000540003, "DeviceSerialNumber": "166182", "DwellTime": 3.4e-06, "EchoTime": 0.032, "EchoTrainLength": 64, "EffectiveEchoSpacing": 0.000540003, "FlipAngle": 40, "HeudiconvVersion": "0.13.1", "ImageOrientationPatientDICOM": [0.999982, -0.00164009, 0.00571567, 0.00191989, 0.998782, -0.0492962], "ImageOrientationText": "Tra>Cor(-2.8)>Sag(0.3)", "ImageType": ["ORIGINAL", "PRIMARY", "M", "ND", "NORM", "MOSAIC"], "ImagingFrequency": 123.256321, "InPlanePhaseEncodingDirectionDICOM": "COL", "InstitutionAddress": "PEARSE STREET .,City,District,IE,D2", "InstitutionName": "TCIN", "InstitutionalDepartmentName": "MRI", "MRAcquisitionType": "2D", "MagneticFieldStrength": 3, "Manufacturer": "Siemens", "ManufacturersModelName": "Prisma", "Modality": "MR", "MultibandAccelerationFactor": 4, "NonlinearGradientCorrection": false, "PartialFourier": 1, "PatientPosition": "HFS", "PercentPhaseFOV": 100, "PercentSampling": 100, "PhaseEncodingDirection": "j-", "PhaseEncodingSteps": 64, "PhaseResolution": 1, "PixelBandwidth": 2300, "ProcedureStepDescription": "Rhodri^Head BOLD", "ProtocolName": "cmrr_mbep2d_Pictures_AP_RDS", "PulseSequenceDetails": "%SiemensSeq%\\ep2d_bold", "ReceiveCoilActiveElements": "HC2,4,6,7;SC", "ReceiveCoilName": "SpecialPurpose_4", "ReconMatrixPE": 64, "RefLinesPE": 12, "RepetitionTime": 0.61, "SAR": 0.241751, "ScanOptions": "FS", "ScanningSequence": "EP", "SequenceName": "*epfid2d1_64", "SequenceVariant": "SK", "SeriesDescription": "cmrr_mbep2d_Pictures_AP_RDS", "SeriesNumber": 10, "ShimSetting": [-3698, -7482, 3916, 760, 187, 130, 238, 478], "SliceThickness": 3, "SliceTiming": [0.26, 0, 0.3275, 0.065, 0.3925, 0.13, 0.4575, 0.195, 0.5225, 0.26, 0, 0.3275, 0.065, 0.3925, 0.13, 0.4575, 0.195, 0.5225, 0.26, 0, 0.3275, 0.065, 0.3925, 0.13, 0.4575, 0.195, 0.5225, 0.26, 0, 0.3275, 0.065, 0.3925, 0.13, 0.4575, 0.195, 0.5225], "SoftwareVersions": "syngo MR E11", "SpacingBetweenSlices": 3.3, "StationName": "AWP166182", "TaskName": "pictures", "TotalReadoutTime": 0.0340202, "TxRefAmp": 232.25, "dcmmeta_affine": [[-2.9999470710754395, 0.005759655963629484, 0.01857193000614643, 95.18246459960938], [0.004920263309031725, 2.996347188949585, -0.16271081566810608, -99.6903305053711], [0.0171470008790493, 0.14788861572742462, 3.295933961868286, -100.09076690673828], [0.0, 0.0, 0.0, 1.0]], "dcmmeta_reorient_transform": [[0.0, -1.0, 0.0, 63.0], [1.0, 0.0, 0.0, 0.0], [0.0, 0.0, 1.0, 0.0], [0.0, 0.0, 0.0, 1.0]], "dcmmeta_shape": [64, 64, 36, 235], "dcmmeta_slice_dim": 2, "dcmmeta_version": 0.6, "global": {"const": {"AcquisitionMatrix": [64, 0, 0, 64], "AngioFlag": "N", "BitsAllocated": 16, "BitsStored": 12, "BodyPartExamined": "BRAIN", "Columns": 384, "EchoNumbers": 1, "EchoTime": 32.0, "EchoTrainLength": 64, "FlipAngle": 40.0, "HighBit": 11, "ImageOrientationPatient": [0.99998232047443, -0.0016400877058, 0.00571566714372, 0.00191988532192, 0.99878235765555, -0.0492962075252], "ImagePositionPatient": [-576.45837928608, -567.70782408176, -69.855120642127], "ImageType": ["ORIGINAL", "PRIMARY", "M", "ND", "NORM", "MOSAIC"], "ImagedNucleus": "1H", "ImagingFrequency": 123.256321, "InPlanePhaseEncodingDirection": "COL", "MRAcquisitionType": "2D", "MagneticFieldStrength": 3.0, "Manufacturer": "SIEMENS", "ManufacturerModelName": "Prisma", "Modality": "MR", "NumberOfAverages": 1.0, "NumberOfPhaseEncodingSteps": 64, "PercentPhaseFieldOfView": 100.0, "PercentSampling": 100.0, "PerformedProcedureStepStartTime": "151033.670000", "PhotometricInterpretation": "MONOCHROME2", "PixelBandwidth": 2300.0, "PixelRepresentation": 0, "PixelSpacing": [3.0, 3.0], "ProtocolName": "cmrr_mbep2d_Pictures_AP_RDS", "RepetitionTime": 610.0, "Rows": 384, "SAR": 0.24175100878428, "SamplesPerPixel": 1, "ScanOptions": "FS", "ScanningSequence": "EP", "SequenceName": "*epfid2d1_64", "SequenceVariant": "SK", "SeriesDescription": "cmrr_mbep2d_Pictures_AP_RDS", "SeriesNumber": 10, "SeriesTime": "153723.645000", "SliceLocation": -94.516400622258, "SliceThickness": 3.0, "SmallestImagePixelValue": 0, "SoftwareVersions": "syngo MR E11", "SpacingBetweenSlices": 3.2999999603689, "SpecificCharacterSet": "ISO_IR 100", "StudyID": "2", "StudyTime": "151033.601000", "TransmitCoilName": "Body", "VariableFlipAngleFlag": "N", "WindowCenterWidthExplanation": "Algo1"}, "slices": {}}, "time": {"samples": {"AcquisitionNumber": [1, 2, 3, 4, 5, 6, 7, 8, 9, 10, 11, 12, 13, 14, 15, 16, 17, 18, 19, 20, 21, 22, 23, 24, 25, 26, 27, 28, 29, 30, 31, 32, 33, 34, 35, 36, 37, 38, 39, 40, 41, 42, 43, 44, 45, 46, 47, 48, 49, 50, 51, 52, 53, 54, 55, 56, 57, 58, 59, 60, 61, 62, 63, 64, 65, 66, 67, 68, 69, 70, 71, 72, 73, 74, 75, 76, 77, 78, 79, 80, 81, 82, 83, 84, 85, 86, 87, 88, 89, 90, 91, 92, 93, 94, 95, 96, 97, 98, 99, 100, 101, 102, 103, 104, 105, 106, 107, 108, 109, 110, 111, 112, 113, 114, 115, 116, 117, 118, 119, 120, 121, 122, 123, 124, 125, 126, 127, 128, 129, 130, 131, 132, 133, 134, 135, 136, 137, 138, 139, 140, 141, 142, 143, 144, 145, 146, 147, 148, 149, 150, 151, 152, 153, 154, 155, 156, 157, 158, 159, 160, 161, 162, 163, 164, 165, 166, 167, 168, 169, 170, 171, 172, 173, 174, 175, 176, 177, 178, 179, 180, 181, 182, 183, 184, 185, 186, 187, 188, 189, 190, 191, 192, 193, 194, 195, 196, 197, 198, 199, 200, 201, 202, 203, 204, 205, 206, 207, 208, 209, 210, 211, 212, 213, 214, 215, 216, 217, 218, 219, 220, 221, 222, 223, 224, 225, 226, 227, 228, 229, 230, 231, 232, 233, 234, 235], "AcquisitionTime": ["153710.725000", "153711.335000", "153711.945000", "153712.555000", "153713.165000", "153713.775000", "153714.385000", "153714.995000", "153715.605000", "153716.215000", "153716.825000", "153717.435000", "153718.045000", "153718.655000", "153719.265000", "153719.875000", "153720.485000", "153721.095000", "153721.705000", "153722.315000", "153722.925000", "153723.535000", "153724.145000", "153724.755000", "153725.365000", "153725.975000", "153726.585000", "153727.195000", "153727.805000", "153728.415000", "153729.025000", "153729.635000", "153730.245000", "153730.855000", "153731.465000", "153732.075000", "153732.685000", "153733.295000", "153733.905000", "153734.515000", "153735.125000", "153735.735000", "153736.345000", "153736.955000", "153737.565000", "153738.175000", "153738.785000", "153739.395000", "153740.005000", "153740.615000", "153741.225000", "153741.835000", "153742.445000", "153743.055000", "153743.665000", "153744.275000", "153744.885000", "153745.495000", "153746.105000", "153746.715000", "153747.325000", "153747.935000", "153748.545000", "153749.155000", "153749.765000", "153750.375000", "153750.985000", "153751.595000", "153752.205000", "153752.815000", "153753.425000", "153754.035000", "153754.645000", "153755.255000", "153755.865000", "153756.475000", "153757.085000", "153757.695000", "153758.305000", "153758.915000", "153759.525000", "153800.135000", "153800.745000", "153801.355000", "153801.965000", "153802.575000", "153803.185000", "153803.795000", "153804.405000", "153805.015000", "153805.625000", "153806.235000", "153806.845000", "153807.455000", "153808.065000", "153808.675000", "153809.285000", "153809.895000", "153810.505000", "153811.115000", "153811.725000", "153812.335000", "153812.945000", "153813.555000", "153814.165000", "153814.775000", "153815.385000", "153815.995000", "153816.605000", "153817.215000", "153817.825000", "153818.435000", "153819.045000", "153819.655000", "153820.265000", "153820.875000", "153821.485000", "153822.095000", "153822.705000", "153823.315000", "153823.925000", "153824.535000", "153825.145000", "153825.755000", "153826.365000", "153826.975000", "153827.585000", "153828.195000", "153828.805000", "153829.415000", "153830.025000", "153830.635000", "153831.245000", "153831.855000", "153832.465000", "153833.075000", "153833.685000", "153834.295000", "153834.905000", "153835.515000", "153836.125000", "153836.735000", "153837.345000", "153837.955000", "153838.565000", "153839.175000", "153839.785000", "153840.395000", "153841.005000", "153841.615000", "153842.225000", "153842.835000", "153843.445000", "153844.055000", "153844.665000", "153845.275000", "153845.885000", "153846.495000", "153847.105000", "153847.715000", "153848.325000", "153848.935000", "153849.545000", "153850.155000", "153850.765000", "153851.375000", "153851.985000", "153852.595000", "153853.205000", "153853.815000", "153854.425000", "153855.035000", "153855.645000", "153856.255000", "153856.865000", "153857.475000", "153858.085000", "153858.695000", "153859.305000", "153859.915000", "153900.525000", "153901.135000", "153901.745000", "153902.355000", "153902.965000", "153903.575000", "153904.185000", "153904.795000", "153905.405000", "153906.015000", "153906.625000", "153907.235000", "153907.845000", "153908.455000", "153909.065000", "153909.675000", "153910.285000", "153910.895000", "153911.505000", "153912.115000", "153912.725000", "153913.335000", "153913.945000", "153914.555000", "153915.165000", "153915.775000", "153916.385000", "153916.995000", "153917.605000", "153918.215000", "153918.825000", "153919.435000", "153920.045000", "153920.655000", "153921.265000", "153921.875000", "153922.485000", "153923.095000", "153923.705000", "153924.315000", "153924.925000", "153925.535000", "153926.145000", "153926.755000", "153927.365000", "153927.975000", "153928.585000", "153929.195000", "153929.805000", "153930.415000", "153931.025000", "153931.635000", "153932.245000", "153932.855000", "153933.465000"], "ContentTime": ["153723.648000", "153723.658000", "153723.660000", "153723.663000", "153723.669000", "153723.672000", "153723.674000", "153723.677000", "153723.679000", "153723.681000", "153723.683000", "153723.686000", "153723.688000", "153723.691000", "153723.693000", "153723.695000", "153723.698000", "153723.700000", "153723.703000", "153723.705000", "153743.643000", "153743.648000", "153743.650000", "153743.652000", "153743.655000", "153743.657000", "153743.660000", "153743.662000", "153743.665000", "153743.667000", "153743.669000", "153743.672000", "153743.674000", "153743.676000", "153743.679000", "153743.681000", "153743.684000", "153743.686000", "153743.688000", "153743.691000", "153743.693000", "153743.696000", "153743.698000", "153743.700000", "153743.703000", "153743.705000", "153743.715000", "153743.718000", "153743.720000", "153743.722000", "153743.725000", "153743.727000", "153743.729000", "153803.643000", "153803.646000", "153803.648000", "153803.651000", "153803.653000", "153803.677000", "153803.680000", "153803.682000", "153803.685000", "153803.687000", "153803.690000", "153803.692000", "153803.694000", "153803.697000", "153803.699000", "153803.701000", "153803.704000", "153803.706000", "153803.708000", "153803.711000", "153803.713000", "153803.716000", "153803.718000", "153803.720000", "153803.723000", "153803.725000", "153803.727000", "153803.730000", "153803.732000", "153803.734000", "153803.737000", "153803.739000", "153823.642000", "153823.645000", "153823.648000", "153823.650000", "153823.653000", "153823.655000", "153823.657000", "153823.660000", "153823.662000", "153823.665000", "153823.667000", "153823.669000", "153823.672000", "153823.674000", "153823.676000", "153823.679000", "153823.681000", "153823.683000", "153823.686000", "153823.688000", "153823.690000", "153823.693000", "153823.695000", "153823.697000", "153823.700000", "153823.703000", "153823.705000", "153823.708000", "153823.710000", "153823.712000", "153823.715000", "153823.717000", "153823.720000", "153843.642000", "153843.645000", "153843.647000", "153843.650000", "153843.652000", "153843.655000", "153843.657000", "153843.659000", "153843.662000", "153843.664000", "153843.666000", "153843.669000", "153843.671000", "153843.673000", "153843.676000", "153843.678000", "153843.680000", "153843.683000", "153843.685000", "153843.688000", "153843.690000", "153843.700000", "153843.702000", "153843.704000", "153843.707000", "153843.709000", "153843.712000", "153843.714000", "153843.716000", "153843.719000", "153843.721000", "153843.723000", "153843.726000", "153903.642000", "153903.645000", "153903.647000", "153903.650000", "153903.652000", "153903.654000", "153903.657000", "153903.659000", "153903.661000", "153903.664000", "153903.666000", "153903.669000", "153903.671000", "153903.673000", "153903.676000", "153903.678000", "153903.680000", "153903.683000", "153903.685000", "153903.687000", "153903.690000", "153903.692000", "153903.695000", "153903.697000", "153903.699000", "153903.702000", "153903.704000", "153903.707000", "153903.709000", "153903.711000", "153903.714000", "153903.716000", "153903.718000", "153923.642000", "153923.645000", "153923.647000", "153923.650000", "153923.652000", "153923.654000", "153923.657000", "153923.659000", "153923.661000", "153923.664000", "153923.666000", "153923.669000", "153923.671000", "153923.673000", "153923.676000", "153923.678000", "153923.681000", "153923.683000", "153923.685000", "153923.688000", "153923.690000", "153923.692000", "153923.695000", "153923.697000", "153923.700000", "153923.702000", "153923.704000", "153923.708000", "153923.710000", "153923.712000", "153923.715000", "153923.717000", "153923.720000", "153935.157000", "153935.160000", "153935.163000", "153935.165000", "153935.168000", "153935.171000", "153935.173000", "153935.176000", "153935.179000", "153935.182000", "153935.184000", "153935.187000", "153935.191000", "153935.194000", "153935.198000", "153935.201000", "153935.203000", "153935.207000"], "InstanceCreationTime": ["153723.648000", "153723.658000", "153723.660000", "153723.663000", "153723.669000", "153723.672000", "153723.674000", "153723.677000", "153723.679000", "153723.681000", "153723.683000", "153723.686000", "153723.688000", "153723.691000", "153723.693000", "153723.695000", "153723.698000", "153723.700000", "153723.703000", "153723.705000", "153743.643000", "153743.648000", "153743.650000", "153743.652000", "153743.655000", "153743.657000", "153743.660000", "153743.662000", "153743.665000", "153743.667000", "153743.669000", "153743.672000", "153743.674000", "153743.676000", "153743.679000", "153743.681000", "153743.684000", "153743.686000", "153743.688000", "153743.691000", "153743.693000", "153743.696000", "153743.698000", "153743.700000", "153743.703000", "153743.705000", "153743.715000", "153743.718000", "153743.720000", "153743.722000", "153743.725000", "153743.727000", "153743.729000", "153803.643000", "153803.646000", "153803.648000", "153803.651000", "153803.653000", "153803.677000", "153803.680000", "153803.682000", "153803.685000", "153803.687000", "153803.690000", "153803.692000", "153803.694000", "153803.697000", "153803.699000", "153803.701000", "153803.704000", "153803.706000", "153803.708000", "153803.711000", "153803.713000", "153803.716000", "153803.718000", "153803.720000", "153803.723000", "153803.725000", "153803.727000", "153803.730000", "153803.732000", "153803.734000", "153803.737000", "153803.739000", "153823.642000", "153823.645000", "153823.648000", "153823.650000", "153823.653000", "153823.655000", "153823.657000", "153823.660000", "153823.662000", "153823.665000", "153823.667000", "153823.669000", "153823.672000", "153823.674000", "153823.676000", "153823.679000", "153823.681000", "153823.683000", "153823.686000", "153823.688000", "153823.690000", "153823.693000", "153823.695000", "153823.697000", "153823.700000", "153823.703000", "153823.705000", "153823.708000", "153823.710000", "153823.712000", "153823.715000", "153823.717000", "153823.720000", "153843.642000", "153843.645000", "153843.647000", "153843.650000", "153843.652000", "153843.655000", "153843.657000", "153843.659000", "153843.662000", "153843.664000", "153843.666000", "153843.669000", "153843.671000", "153843.673000", "153843.676000", "153843.678000", "153843.680000", "153843.683000", "153843.685000", "153843.688000", "153843.690000", "153843.700000", "153843.702000", "153843.704000", "153843.707000", "153843.709000", "153843.712000", "153843.714000", "153843.716000", "153843.719000", "153843.721000", "153843.723000", "153843.726000", "153903.642000", "153903.645000", "153903.647000", "153903.650000", "153903.652000", "153903.654000", "153903.657000", "153903.659000", "153903.661000", "153903.664000", "153903.666000", "153903.669000", "153903.671000", "153903.673000", "153903.676000", "153903.678000", "153903.680000", "153903.683000", "153903.685000", "153903.687000", "153903.690000", "153903.692000", "153903.695000", "153903.697000", "153903.699000", "153903.702000", "153903.704000", "153903.707000", "153903.709000", "153903.711000", "153903.714000", "153903.716000", "153903.718000", "153923.642000", "153923.645000", "153923.647000", "153923.650000", "153923.652000", "153923.654000", "153923.657000", "153923.659000", "153923.661000", "153923.664000", "153923.666000", "153923.669000", "153923.671000", "153923.673000", "153923.676000", "153923.678000", "153923.681000", "153923.683000", "153923.685000", "153923.688000", "153923.690000", "153923.692000", "153923.695000", "153923.697000", "153923.700000", "153923.702000", "153923.704000", "153923.708000", "153923.710000", "153923.712000", "153923.715000", "153923.717000", "153923.720000", "153935.157000", "153935.160000", "153935.163000", "153935.165000", "153935.168000", "153935.171000", "153935.173000", "153935.176000", "153935.179000", "153935.182000", "153935.184000", "153935.187000", "153935.191000", "153935.194000", "153935.198000", "153935.201000", "153935.203000", "153935.207000"], "InstanceNumber": [1, 2, 3, 4, 5, 6, 7, 8, 9, 10, 11, 12, 13, 14, 15, 16, 17, 18, 19, 20, 21, 22, 23, 24, 25, 26, 27, 28, 29, 30, 31, 32, 33, 34, 35, 36, 37, 38, 39, 40, 41, 42, 43, 44, 45, 46, 47, 48, 49, 50, 51, 52, 53, 54, 55, 56, 57, 58, 59, 60, 61, 62, 63, 64, 65, 66, 67, 68, 69, 70, 71, 72, 73, 74, 75, 76, 77, 78, 79, 80, 81, 82, 83, 84, 85, 86, 87, 88, 89, 90, 91, 92, 93, 94, 95, 96, 97, 98, 99, 100, 101, 102, 103, 104, 105, 106, 107, 108, 109, 110, 111, 112, 113, 114, 115, 116, 117, 118, 119, 120, 121, 122, 123, 124, 125, 126, 127, 128, 129, 130, 131, 132, 133, 134, 135, 136, 137, 138, 139, 140, 141, 142, 143, 144, 145, 146, 147, 148, 149, 150, 151, 152, 153, 154, 155, 156, 157, 158, 159, 160, 161, 162, 163, 164, 165, 166, 167, 168, 169, 170, 171, 172, 173, 174, 175, 176, 177, 178, 179, 180, 181, 182, 183, 184, 185, 186, 187, 188, 189, 190, 191, 192, 193, 194, 195, 196, 197, 198, 199, 200, 201, 202, 203, 204, 205, 206, 207, 208, 209, 210, 211, 212, 213, 214, 215, 216, 217, 218, 219, 220, 221, 222, 223, 224, 225, 226, 227, 228, 229, 230, 231, 232, 233, 234, 235], "LargestImagePixelValue": [455, 442, 446, 443, 424, 421, 435, 444, 430, 431, 431, 429, 429, 434, 437, 436, 435, 438, 430, 430, 435, 433, 434, 436, 437, 431, 442, 435, 432, 439, 433, 430, 436, 435, 440, 436, 435, 438, 431, 428, 438, 438, 426, 433, 430, 431, 424, 430, 426, 430, 438, 436, 432, 434, 435, 429, 447, 434, 446, 440, 437, 438, 440, 436, 431, 435, 432, 446, 436, 430, 428, 431, 436, 430, 434, 432, 432, 432, 434, 452, 437, 428, 451, 428, 451, 433, 432, 432, 437, 429, 431, 435, 431, 428, 438, 449, 435, 445, 451, 436, 441, 440, 431, 425, 426, 428, 427, 432, 430, 435, 432, 433, 427, 429, 430, 432, 434, 431, 432, 438, 436, 440, 438, 439, 435, 431, 431, 434, 433, 440, 432, 430, 432, 437, 427, 442, 432, 423, 431, 449, 453, 444, 438, 428, 434, 428, 430, 444, 430, 432, 432, 430, 426, 432, 433, 437, 428, 427, 431, 442, 438, 443, 443, 441, 439, 438, 435, 433, 438, 437, 432, 430, 433, 459, 453, 564, 486, 456, 455, 434, 518, 498, 454, 465, 450, 455, 455, 458, 443, 439, 473, 455, 440, 441, 441, 453, 469, 441, 429, 440, 431, 437, 431, 452, 484, 458, 478, 463, 527, 616, 501, 454, 460, 436, 428, 425, 433, 428, 442, 420, 427, 447, 540, 515, 464, 528, 440, 429, 513, 470, 531, 500, 476, 489, 460], "WindowCenter": [281.0, 277.0, 276.0, 277.0, 275.0, 274.0, 274.0, 275.0, 273.0, 273.0, 273.0, 273.0, 273.0, 273.0, 274.0, 273.0, 273.0, 273.0, 274.0, 273.0, 274.0, 273.0, 274.0, 275.0, 275.0, 274.0, 275.0, 275.0, 274.0, 275.0, 275.0, 274.0, 275.0, 275.0, 275.0, 278.0, 275.0, 275.0, 274.0, 274.0, 274.0, 275.0, 274.0, 275.0, 276.0, 275.0, 275.0, 274.0, 274.0, 274.0, 275.0, 274.0, 274.0, 274.0, 273.0, 274.0, 275.0, 274.0, 275.0, 275.0, 275.0, 275.0, 275.0, 276.0, 276.0, 276.0, 276.0, 277.0, 275.0, 275.0, 274.0, 275.0, 275.0, 274.0, 274.0, 274.0, 275.0, 274.0, 274.0, 274.0, 276.0, 274.0, 275.0, 274.0, 276.0, 274.0, 274.0, 274.0, 274.0, 274.0, 275.0, 276.0, 276.0, 275.0, 276.0, 276.0, 275.0, 274.0, 277.0, 276.0, 274.0, 275.0, 275.0, 274.0, 275.0, 275.0, 275.0, 276.0, 276.0, 276.0, 275.0, 276.0, 274.0, 274.0, 274.0, 275.0, 275.0, 275.0, 275.0, 276.0, 276.0, 275.0, 276.0, 276.0, 276.0, 275.0, 276.0, 275.0, 275.0, 275.0, 274.0, 274.0, 274.0, 276.0, 274.0, 276.0, 274.0, 274.0, 274.0, 275.0, 276.0, 274.0, 275.0, 275.0, 275.0, 274.0, 275.0, 275.0, 275.0, 274.0, 274.0, 274.0, 274.0, 275.0, 274.0, 274.0, 274.0, 274.0, 275.0, 275.0, 275.0, 275.0, 275.0, 275.0, 275.0, 276.0, 276.0, 276.0, 276.0, 276.0, 276.0, 275.0, 274.0, 275.0, 276.0, 275.0, 274.0, 275.0, 274.0, 273.0, 267.0, 275.0, 273.0, 273.0, 274.0, 272.0, 272.0, 275.0, 276.0, 273.0, 272.0, 275.0, 274.0, 275.0, 275.0, 273.0, 273.0, 272.0, 272.0, 273.0, 270.0, 271.0, 271.0, 271.0, 273.0, 271.0, 270.0, 273.0, 275.0, 271.0, 272.0, 275.0, 272.0, 271.0, 274.0, 271.0, 272.0, 267.0, 271.0, 270.0, 270.0, 270.0, 273.0, 271.0, 269.0, 272.0, 270.0, 266.0, 273.0, 269.0, 271.0, 269.0, 270.0, 272.0, 270.0], "WindowWidth": [617.0, 609.0, 606.0, 609.0, 604.0, 603.0, 603.0, 605.0, 600.0, 601.0, 600.0, 600.0, 600.0, 600.0, 602.0, 601.0, 601.0, 601.0, 602.0, 601.0, 603.0, 601.0, 603.0, 605.0, 604.0, 603.0, 605.0, 605.0, 603.0, 604.0, 605.0, 603.0, 605.0, 605.0, 605.0, 609.0, 605.0, 605.0, 603.0, 603.0, 603.0, 604.0, 603.0, 604.0, 606.0, 605.0, 604.0, 603.0, 603.0, 603.0, 604.0, 603.0, 603.0, 603.0, 601.0, 603.0, 605.0, 603.0, 604.0, 605.0, 604.0, 605.0, 605.0, 606.0, 606.0, 607.0, 606.0, 607.0, 604.0, 603.0, 603.0, 604.0, 604.0, 603.0, 603.0, 603.0, 604.0, 603.0, 603.0, 603.0, 606.0, 603.0, 605.0, 603.0, 605.0, 603.0, 602.0, 603.0, 603.0, 603.0, 604.0, 606.0, 605.0, 605.0, 606.0, 606.0, 605.0, 603.0, 608.0, 606.0, 603.0, 604.0, 604.0, 603.0, 604.0, 604.0, 605.0, 605.0, 605.0, 605.0, 604.0, 605.0, 603.0, 603.0, 602.0, 604.0, 604.0, 604.0, 604.0, 606.0, 605.0, 604.0, 605.0, 606.0, 606.0, 604.0, 606.0, 604.0, 604.0, 604.0, 603.0, 603.0, 603.0, 606.0, 603.0, 605.0, 603.0, 603.0, 602.0, 604.0, 605.0, 603.0, 604.0, 604.0, 604.0, 603.0, 604.0, 604.0, 604.0, 603.0, 603.0, 602.0, 602.0, 604.0, 603.0, 603.0, 603.0, 603.0, 604.0, 604.0, 604.0, 604.0, 604.0, 604.0, 604.0, 606.0, 605.0, 606.0, 606.0, 606.0, 606.0, 604.0, 602.0, 605.0, 606.0, 604.0, 602.0, 603.0, 603.0, 601.0, 589.0, 605.0, 601.0, 600.0, 602.0, 599.0, 599.0, 604.0, 606.0, 600.0, 598.0, 604.0, 602.0, 605.0, 605.0, 600.0, 601.0, 598.0, 599.0, 601.0, 594.0, 597.0, 597.0, 596.0, 601.0, 598.0, 595.0, 601.0, 605.0, 596.0, 598.0, 604.0, 600.0, 596.0, 602.0, 597.0, 598.0, 590.0, 596.0, 595.0, 595.0, 595.0, 600.0, 596.0, 593.0, 598.0, 594.0, 586.0, 601.0, 593.0, 595.0, 593.0, 594.0, 597.0, 594.0]}, "slices": {}}, "EventTimestamp": "15-39-42"}