{"AcquisitionMatrixPE": 64, "AcquisitionNumber": 1, "AcquisitionTime": "15:02:1.757500", "BandwidthPerPixelPhaseEncode": 28.935, "BaseResolution": 64, "BodyPartExamined": "BRAIN", "CoilString": "HC2_4_6_7;SC", "ConsistencyInfo": "N4_VE11E_LATEST_20181129", "ConversionSoftware": "dcm2niix", "ConversionSoftwareVersion": "v1.0.20190902", "DerivedVendorReportedEchoSpacing": 0.000540003, "DeviceSerialNumber": "166182", "DwellTime": 3.4e-06, "EchoTime": 0.032, "EchoTrainLength": 64, "EffectiveEchoSpacing": 0.000540003, "FlipAngle": 40, "ImageOrientationPatientDICOM": [0.990412, 0.133364, -0.0360368, -0.132149, 0.990638, 0.0342334], "ImageType": ["ORIGINAL", "PRIMARY", "M", "ND", "NORM", "MOSAIC"], "ImagingFrequency": 123.255, "InPlanePhaseEncodingDirectionDICOM": "COL", "InstitutionAddress": "PEARSE_STREET_._City_District_IE_D2", "InstitutionName": "TCIN", "InstitutionalDepartmentName": "MRI", "MRAcquisitionType": "2D", "MagneticFieldStrength": 3, "Manufacturer": "Siemens", "ManufacturersModelName": "Prisma", "Modality": "MR", "MultibandAccelerationFactor": 4, "PartialFourier": 1, "PatientPosition": "HFS", "PercentPhaseFOV": 100, "PhaseEncodingDirection": "j-", "PhaseEncodingSteps": 64, "PhaseResolution": 1, "PixelBandwidth": 2300, "ProcedureStepDescription": "Rhodri_Head_BOLD", "ProtocolName": "cmrr_mbep2d_Pictures_AP_RDS", "PulseSequenceDetails": "%SiemensSeq%_ep2d_bold", "ReceiveCoilActiveElements": "HC2,4,6,7;SC", "ReceiveCoilName": "SpecialPurpose_4", "ReconMatrixPE": 64, "RefLinesPE": 12, "RepetitionTime": 0.61, "SAR": 0.266893, "ScanOptions": "FS", "ScanningSequence": "EP", "SequenceName": "_epfid2d1_64", "SequenceVariant": "SK", "SeriesDescription": "cmrr_mbep2d_Pictures_AP_RDS", "SeriesNumber": 12, "ShimSetting": [-3604, -7424, 3870, 1098, -229, 315, 170, 54], "SliceThickness": 3, "SliceTiming": [0.2625, 0, 0.3275, 0.065, 0.395, 0.1325, 0.46, 0.1975, 0.525, 0.2625, 0, 0.3275, 0.065, 0.395, 0.1325, 0.46, 0.1975, 0.525, 0.2625, 0, 0.3275, 0.065, 0.395, 0.1325, 0.46, 0.1975, 0.525, 0.2625, 0, 0.3275, 0.065, 0.395, 0.1325, 0.46, 0.1975, 0.525], "SoftwareVersions": "syngo_MR_E11", "SpacingBetweenSlices": 3.3, "StationName": "AWP166182", "TaskName": "pictures", "TotalReadoutTime": 0.0340202, "TxRefAmp": 232.206, "dcmmeta_affine": [[-2.9712350368499756, -0.39644742012023926, -0.1328742504119873, 108.36288452148438], [-0.40009260177612305, 2.9719154834747314, 0.09617170691490173, -91.44764709472656], [-0.10811031609773636, -0.10270023345947266, 3.2959208488464355, -80.87225341796875], [0.0, 0.0, 0.0, 1.0]], "dcmmeta_reorient_transform": [[0.0, -1.0, 0.0, 63.0], [1.0, 0.0, 0.0, 0.0], [0.0, 0.0, 1.0, 0.0], [0.0, 0.0, 0.0, 1.0]], "dcmmeta_shape": [64, 64, 36, 510], "dcmmeta_slice_dim": 2, "dcmmeta_version": 0.6, "global": {"const": {"AcquisitionMatrix": [64, 0, 0, 64], "AngioFlag": "N", "BitsAllocated": 16, "BitsStored": 12, "BodyPartExamined": "BRAIN", "Columns": 384, "EchoNumbers": 1, "EchoTime": 32.0, "EchoTrainLength": 64, "FlipAngle": 40.0, "HighBit": 11, "ImageOrientationPatient": [0.99041170247556, 0.13336420325172, -0.0360367713663, -0.1321491406496, 0.99063852043741, 0.03423341132781], "ImagePositionPatient": [-495.35272940712, -635.30433967319, -86.476752288727], "ImageType": ["ORIGINAL", "PRIMARY", "M", "ND", "NORM", "MOSAIC"], "ImagedNucleus": "1H", "ImagingFrequency": 123.254801, "InPlanePhaseEncodingDirection": "COL", "MRAcquisitionType": "2D", "MagneticFieldStrength": 3.0, "Manufacturer": "SIEMENS", "ManufacturerModelName": "Prisma", "Modality": "MR", "NumberOfAverages": 1.0, "NumberOfPhaseEncodingSteps": 64, "PercentPhaseFieldOfView": 100.0, "PercentSampling": 100.0, "PerformedProcedureStepStartTime": "140405.195000", "PhotometricInterpretation": "MONOCHROME2", "PixelBandwidth": 2300.0, "PixelRepresentation": 0, "PixelSpacing": [3.0, 3.0], "ProtocolName": "cmrr_mbep2d_Pictures_AP_RDS", "RepetitionTime": 610.0, "Rows": 384, "SAR": 0.26689264979027, "SamplesPerPixel": 1, "ScanOptions": "FS", "ScanningSequence": "EP", "SequenceName": "*epfid2d1_64", "SequenceVariant": "SK", "SeriesDescription": "cmrr_mbep2d_Pictures_AP_RDS", "SeriesNumber": 12, "SeriesTime": "150225.057000", "SliceLocation": -87.800565256257, "SliceThickness": 3.0, "SmallestImagePixelValue": 0, "SoftwareVersions": "syngo MR E11", "SpacingBetweenSlices": 3.2999999145133, "SpecificCharacterSet": "ISO_IR 100", "StudyID": "1", "StudyTime": "140405.110000", "TransmitCoilName": "Body", "VariableFlipAngleFlag": "N", "WindowCenterWidthExplanation": "Algo1"}, "slices": {}}, "time": {"samples": {"AcquisitionNumber": [1, 2, 3, 4, 5, 6, 7, 8, 9, 10, 11, 12, 13, 14, 15, 16, 17, 18, 19, 20, 21, 22, 23, 24, 25, 26, 27, 28, 29, 30, 31, 32, 33, 34, 35, 36, 37, 38, 39, 40, 41, 42, 43, 44, 45, 46, 47, 48, 49, 50, 51, 52, 53, 54, 55, 56, 57, 58, 59, 60, 61, 62, 63, 64, 65, 66, 67, 68, 69, 70, 71, 72, 73, 74, 75, 76, 77, 78, 79, 80, 81, 82, 83, 84, 85, 86, 87, 88, 89, 90, 91, 92, 93, 94, 95, 96, 97, 98, 99, 100, 101, 102, 103, 104, 105, 106, 107, 108, 109, 110, 111, 112, 113, 114, 115, 116, 117, 118, 119, 120, 121, 122, 123, 124, 125, 126, 127, 128, 129, 130, 131, 132, 133, 134, 135, 136, 137, 138, 139, 140, 141, 142, 143, 144, 145, 146, 147, 148, 149, 150, 151, 152, 153, 154, 155, 156, 157, 158, 159, 160, 161, 162, 163, 164, 165, 166, 167, 168, 169, 170, 171, 172, 173, 174, 175, 176, 177, 178, 179, 180, 181, 182, 183, 184, 185, 186, 187, 188, 189, 190, 191, 192, 193, 194, 195, 196, 197, 198, 199, 200, 201, 202, 203, 204, 205, 206, 207, 208, 209, 210, 211, 212, 213, 214, 215, 216, 217, 218, 219, 220, 221, 222, 223, 224, 225, 226, 227, 228, 229, 230, 231, 232, 233, 234, 235, 236, 237, 238, 239, 240, 241, 242, 243, 244, 245, 246, 247, 248, 249, 250, 251, 252, 253, 254, 255, 256, 257, 258, 259, 260, 261, 262, 263, 264, 265, 266, 267, 268, 269, 270, 271, 272, 273, 274, 275, 276, 277, 278, 279, 280, 281, 282, 283, 284, 285, 286, 287, 288, 289, 290, 291, 292, 293, 294, 295, 296, 297, 298, 299, 300, 301, 302, 303, 304, 305, 306, 307, 308, 309, 310, 311, 312, 313, 314, 315, 316, 317, 318, 319, 320, 321, 322, 323, 324, 325, 326, 327, 328, 329, 330, 331, 332, 333, 334, 335, 336, 337, 338, 339, 340, 341, 342, 343, 344, 345, 346, 347, 348, 349, 350, 351, 352, 353, 354, 355, 356, 357, 358, 359, 360, 361, 362, 363, 364, 365, 366, 367, 368, 369, 370, 371, 372, 373, 374, 375, 376, 377, 378, 379, 380, 381, 382, 383, 384, 385, 386, 387, 388, 389, 390, 391, 392, 393, 394, 395, 396, 397, 398, 399, 400, 401, 402, 403, 404, 405, 406, 407, 408, 409, 410, 411, 412, 413, 414, 415, 416, 417, 418, 419, 420, 421, 422, 423, 424, 425, 426, 427, 428, 429, 430, 431, 432, 433, 434, 435, 436, 437, 438, 439, 440, 441, 442, 443, 444, 445, 446, 447, 448, 449, 450, 451, 452, 453, 454, 455, 456, 457, 458, 459, 460, 461, 462, 463, 464, 465, 466, 467, 468, 469, 470, 471, 472, 473, 474, 475, 476, 477, 478, 479, 480, 481, 482, 483, 484, 485, 486, 487, 488, 489, 490, 491, 492, 493, 494, 495, 496, 497, 498, 499, 500, 501, 502, 503, 504, 505, 506, 507, 508, 509, 510], "AcquisitionTime": ["150201.757500", "150202.367500", "150202.977500", "150203.587500", "150204.197500", "150204.807500", "150205.417500", "150206.027500", "150206.637500", "150207.247500", "150207.857500", "150208.467500", "150209.077500", "150209.687500", "150210.297500", "150210.907500", "150211.517500", "150212.127500", "150212.737500", "150213.347500", "150213.957500", "150214.567500", "150215.177500", "150215.787500", "150216.397500", "150217.007500", "150217.617500", "150218.227500", "150218.837500", "150219.447500", "150220.057500", "150220.667500", "150221.277500", "150221.887500", "150222.497500", "150223.107500", "150223.717500", "150224.327500", "150224.937500", "150225.547500", "150226.157500", "150226.767500", "150227.377500", "150227.987500", "150228.597500", "150229.207500", "150229.817500", "150230.427500", "150231.037500", "150231.647500", "150232.257500", "150232.867500", "150233.477500", "150234.087500", "150234.697500", "150235.307500", "150235.917500", "150236.527500", "150237.137500", "150237.747500", "150238.357500", "150238.967500", "150239.577500", "150240.187500", "150240.797500", "150241.407500", "150242.017500", "150242.627500", "150243.237500", "150243.847500", "150244.457500", "150245.067500", "150245.677500", "150246.287500", "150246.897500", "150247.507500", "150248.117500", "150248.727500", "150249.337500", "150249.947500", "150250.557500", "150251.167500", "150251.777500", "150252.387500", "150252.997500", "150253.607500", "150254.217500", "150254.827500", "150255.437500", "150256.047500", "150256.657500", "150257.267500", "150257.877500", "150258.487500", "150259.097500", "150259.707500", "150300.317500", "150300.927500", "150301.537500", "150302.147500", "150302.757500", "150303.367500", "150303.977500", "150304.587500", "150305.197500", "150305.807500", "150306.417500", "150307.027500", "150307.637500", "150308.247500", "150308.857500", "150309.467500", "150310.077500", "150310.687500", "150311.297500", "150311.907500", "150312.517500", "150313.127500", "150313.737500", "150314.347500", "150314.957500", "150315.567500", "150316.177500", "150316.787500", "150317.397500", "150318.007500", "150318.617500", "150319.227500", "150319.837500", "150320.447500", "150321.057500", "150321.667500", "150322.277500", "150322.887500", "150323.497500", "150324.107500", "150324.717500", "150325.327500", "150325.937500", "150326.547500", "150327.157500", "150327.767500", "150328.377500", "150328.987500", "150329.597500", "150330.207500", "150330.817500", "150331.427500", "150332.037500", "150332.647500", "150333.257500", "150333.867500", "150334.477500", "150335.087500", "150335.697500", "150336.307500", "150336.917500", "150337.527500", "150338.137500", "150338.747500", "150339.357500", "150339.967500", "150340.577500", "150341.187500", "150341.797500", "150342.407500", "150343.017500", "150343.627500", "150344.237500", "150344.847500", "150345.457500", "150346.067500", "150346.677500", "150347.287500", "150347.897500", "150348.507500", "150349.117500", "150349.727500", "150350.337500", "150350.947500", "150351.557500", "150352.167500", "150352.777500", "150353.387500", "150353.997500", "150354.607500", "150355.217500", "150355.827500", "150356.437500", "150357.047500", "150357.657500", "150358.267500", "150358.877500", "150359.487500", "150400.097500", "150400.707500", "150401.317500", "150401.927500", "150402.537500", "150403.147500", "150403.757500", "150404.367500", "150404.977500", "150405.587500", "150406.197500", "150406.807500", "150407.417500", "150408.027500", "150408.637500", "150409.247500", "150409.857500", "150410.467500", "150411.077500", "150411.687500", "150412.297500", "150412.907500", "150413.517500", "150414.127500", "150414.737500", "150415.347500", "150415.957500", "150416.567500", "150417.177500", "150417.787500", "150418.397500", "150419.007500", "150419.617500", "150420.227500", "150420.837500", "150421.447500", "150422.057500", "150422.667500", "150423.277500", "150423.887500", "150424.497500", "150425.107500", "150425.717500", "150426.327500", "150426.937500", "150427.547500", "150428.157500", "150428.767500", "150429.377500", "150429.987500", "150430.597500", "150431.207500", "150431.817500", "150432.427500", "150433.037500", "150433.647500", "150434.257500", "150434.867500", "150435.477500", "150436.087500", "150436.697500", "150437.307500", "150437.917500", "150438.527500", "150439.137500", "150439.747500", "150440.357500", "150440.967500", "150441.577500", "150442.187500", "150442.797500", "150443.407500", "150444.017500", "150444.627500", "150445.237500", "150445.847500", "150446.457500", "150447.067500", "150447.677500", "150448.287500", "150448.897500", "150449.507500", "150450.117500", "150450.727500", "150451.337500", "150451.947500", "150452.557500", "150453.167500", "150453.777500", "150454.387500", "150454.997500", "150455.607500", "150456.217500", "150456.827500", "150457.437500", "150458.047500", "150458.657500", "150459.267500", "150459.877500", "150500.487500", "150501.097500", "150501.707500", "150502.317500", "150502.927500", "150503.537500", "150504.147500", "150504.757500", "150505.367500", "150505.977500", "150506.587500", "150507.197500", "150507.807500", "150508.417500", "150509.027500", "150509.637500", "150510.247500", "150510.857500", "150511.467500", "150512.077500", "150512.687500", "150513.297500", "150513.907500", "150514.517500", "150515.127500", "150515.737500", "150516.347500", "150516.957500", "150517.567500", "150518.177500", "150518.787500", "150519.397500", "150520.007500", "150520.617500", "150521.227500", "150521.837500", "150522.447500", "150523.057500", "150523.667500", "150524.277500", "150524.887500", "150525.497500", "150526.107500", "150526.717500", "150527.327500", "150527.937500", "150528.547500", "150529.157500", "150529.767500", "150530.377500", "150530.987500", "150531.597500", "150532.207500", "150532.817500", "150533.427500", "150534.037500", "150534.647500", "150535.257500", "150535.867500", "150536.477500", "150537.087500", "150537.697500", "150538.307500", "150538.917500", "150539.527500", "150540.137500", "150540.747500", "150541.357500", "150541.967500", "150542.577500", "150543.187500", "150543.797500", "150544.407500", "150545.017500", "150545.627500", "150546.237500", "150546.847500", "150547.457500", "150548.067500", "150548.677500", "150549.287500", "150549.897500", "150550.507500", "150551.117500", "150551.727500", "150552.337500", "150552.947500", "150553.557500", "150554.167500", "150554.777500", "150555.387500", "150555.997500", "150556.607500", "150557.217500", "150557.827500", "150558.437500", "150559.047500", "150559.657500", "150600.267500", "150600.877500", "150601.487500", "150602.097500", "150602.707500", "150603.317500", "150603.927500", "150604.537500", "150605.147500", "150605.757500", "150606.367500", "150606.977500", "150607.587500", "150608.197500", "150608.807500", "150609.417500", "150610.027500", "150610.637500", "150611.247500", "150611.857500", "150612.467500", "150613.077500", "150613.687500", "150614.297500", "150614.907500", "150615.517500", "150616.127500", "150616.737500", "150617.347500", "150617.957500", "150618.567500", "150619.177500", "150619.787500", "150620.397500", "150621.007500", "150621.617500", "150622.227500", "150622.837500", "150623.447500", "150624.057500", "150624.667500", "150625.277500", "150625.887500", "150626.497500", "150627.107500", "150627.717500", "150628.327500", "150628.937500", "150629.547500", "150630.157500", "150630.767500", "150631.377500", "150631.987500", "150632.597500", "150633.207500", "150633.817500", "150634.427500", "150635.037500", "150635.647500", "150636.257500", "150636.867500", "150637.477500", "150638.087500", "150638.697500", "150639.307500", "150639.917500", "150640.527500", "150641.137500", "150641.747500", "150642.357500", "150642.967500", "150643.577500", "150644.187500", "150644.797500", "150645.407500", "150646.017500", "150646.627500", "150647.237500", "150647.847500", "150648.457500", "150649.067500", "150649.677500", "150650.287500", "150650.897500", "150651.507500", "150652.117500", "150652.727500", "150653.337500", "150653.947500", "150654.557500", "150655.167500", "150655.777500", "150656.387500", "150656.997500", "150657.607500", "150658.217500", "150658.827500", "150659.437500", "150700.047500", "150700.657500", "150701.267500", "150701.877500", "150702.487500", "150703.097500", "150703.707500", "150704.317500", "150704.927500", "150705.537500", "150706.147500", "150706.757500", "150707.367500", "150707.977500", "150708.587500", "150709.197500", "150709.807500", "150710.417500", "150711.027500", "150711.637500", "150712.247500"], "ContentTime": ["150225.061000", "150225.064000", "150225.066000", "150225.069000", "150225.071000", "150225.073000", "150225.076000", "150225.078000", "150225.081000", "150225.083000", "150225.086000", "150225.088000", "150225.091000", "150225.093000", "150225.095000", "150225.098000", "150225.106000", "150225.108000", "150225.111000", "150225.113000", "150225.116000", "150225.118000", "150225.125000", "150225.128000", "150225.130000", "150225.133000", "150225.135000", "150225.138000", "150225.140000", "150225.142000", "150225.153000", "150225.155000", "150225.157000", "150225.160000", "150225.162000", "150225.165000", "150225.167000", "150245.049000", "150245.052000", "150245.054000", "150245.057000", "150245.059000", "150245.061000", "150245.069000", "150245.072000", "150245.074000", "150245.077000", "150245.079000", "150245.081000", "150245.084000", "150245.087000", "150245.089000", "150245.091000", "150245.094000", "150245.096000", "150245.098000", "150245.101000", "150245.103000", "150245.106000", "150245.108000", "150245.110000", "150245.113000", "150245.115000", "150245.118000", "150245.120000", "150245.122000", "150245.125000", "150245.128000", "150245.131000", "150305.049000", "150305.052000", "150305.054000", "150305.057000", "150305.059000", "150305.061000", "150305.064000", "150305.066000", "150305.069000", "150305.071000", "150305.073000", "150305.076000", "150305.078000", "150305.081000", "150305.085000", "150305.088000", "150305.091000", "150305.093000", "150305.103000", "150305.105000", "150305.107000", "150305.110000", "150305.121000", "150305.124000", "150305.126000", "150305.128000", "150305.131000", "150305.133000", "150305.135000", "150305.138000", "150305.140000", "150305.143000", "150305.145000", "150325.049000", "150325.052000", "150325.054000", "150325.057000", "150325.059000", "150325.061000", "150325.064000", "150325.066000", "150325.069000", "150325.071000", "150325.074000", "150325.076000", "150325.078000", "150325.081000", "150325.083000", "150325.086000", "150325.088000", "150325.091000", "150325.093000", "150325.096000", "150325.098000", "150325.100000", "150325.103000", "150325.105000", "150325.108000", "150325.110000", "150325.113000", "150325.115000", "150325.117000", "150325.120000", "150325.122000", "150325.125000", "150325.127000", "150345.049000", "150345.052000", "150345.054000", "150345.057000", "150345.059000", "150345.061000", "150345.064000", "150345.066000", "150345.069000", "150345.071000", "150345.073000", "150345.076000", "150345.078000", "150345.080000", "150345.083000", "150345.085000", "150345.088000", "150345.090000", "150345.092000", "150345.095000", "150345.097000", "150345.100000", "150345.102000", "150345.104000", "150345.107000", "150345.109000", "150345.112000", "150345.114000", "150345.116000", "150345.119000", "150345.121000", "150345.124000", "150345.126000", "150405.049000", "150405.052000", "150405.061000", "150405.063000", "150405.066000", "150405.071000", "150405.073000", "150405.076000", "150405.078000", "150405.081000", "150405.083000", "150405.085000", "150405.088000", "150405.090000", "150405.093000", "150405.095000", "150405.097000", "150405.100000", "150405.102000", "150405.105000", "150405.107000", "150405.110000", "150405.112000", "150405.115000", "150405.118000", "150405.120000", "150405.123000", "150405.125000", "150405.127000", "150405.130000", "150405.132000", "150405.135000", "150405.137000", "150425.049000", "150425.052000", "150425.054000", "150425.057000", "150425.059000", "150425.062000", "150425.064000", "150425.067000", "150425.069000", "150425.072000", "150425.074000", "150425.076000", "150425.079000", "150425.081000", "150425.084000", "150425.086000", "150425.089000", "150425.091000", "150425.093000", "150425.096000", "150425.098000", "150425.101000", "150425.103000", "150425.105000", "150425.108000", "150425.110000", "150425.113000", "150425.115000", "150425.117000", "150425.120000", "150425.122000", "150425.135000", "150445.049000", "150445.052000", "150445.054000", "150445.057000", "150445.059000", "150445.061000", "150445.064000", "150445.066000", "150445.068000", "150445.071000", "150445.073000", "150445.076000", "150445.078000", "150445.081000", "150445.083000", "150445.086000", "150445.088000", "150445.090000", "150445.093000", "150445.095000", "150445.098000", "150445.100000", "150445.102000", "150445.105000", "150445.108000", "150445.110000", "150445.112000", "150445.115000", "150445.117000", "150445.120000", "150445.122000", "150445.124000", "150445.127000", "150505.049000", "150505.052000", "150505.054000", "150505.057000", "150505.059000", "150505.061000", "150505.064000", "150505.066000", "150505.068000", "150505.071000", "150505.073000", "150505.076000", "150505.078000", "150505.081000", "150505.083000", "150505.085000", "150505.088000", "150505.108000", "150505.110000", "150505.113000", "150505.115000", "150505.118000", "150505.120000", "150505.122000", "150505.125000", "150505.127000", "150505.130000", "150505.132000", "150505.134000", "150505.137000", "150505.139000", "150505.142000", "150505.144000", "150525.049000", "150525.052000", "150525.054000", "150525.057000", "150525.059000", "150525.062000", "150525.064000", "150525.067000", "150525.069000", "150525.071000", "150525.074000", "150525.076000", "150525.079000", "150525.081000", "150525.083000", "150525.086000", "150525.088000", "150525.091000", "150525.093000", "150525.096000", "150525.098000", "150525.101000", "150525.103000", "150525.106000", "150525.108000", "150525.110000", "150525.113000", "150525.115000", "150525.118000", "150525.120000", "150525.123000", "150525.125000", "150525.127000", "150545.049000", "150545.052000", "150545.055000", "150545.057000", "150545.059000", "150545.062000", "150545.064000", "150545.067000", "150545.069000", "150545.072000", "150545.074000", "150545.076000", "150545.079000", "150545.081000", "150545.084000", "150545.087000", "150545.089000", "150545.092000", "150545.094000", "150545.097000", "150545.099000", "150545.101000", "150545.104000", "150545.106000", "150545.109000", "150545.111000", "150545.113000", "150545.116000", "150545.118000", "150545.121000", "150545.123000", "150545.126000", "150605.049000", "150605.052000", "150605.054000", "150605.057000", "150605.059000", "150605.061000", "150605.064000", "150605.066000", "150605.069000", "150605.071000", "150605.074000", "150605.076000", "150605.078000", "150605.081000", "150605.083000", "150605.086000", "150605.088000", "150605.091000", "150605.093000", "150605.096000", "150605.098000", "150605.101000", "150605.103000", "150605.106000", "150605.108000", "150605.110000", "150605.113000", "150605.115000", "150605.118000", "150605.120000", "150605.123000", "150605.125000", "150605.128000", "150625.049000", "150625.052000", "150625.054000", "150625.057000", "150625.059000", "150625.061000", "150625.064000", "150625.066000", "150625.069000", "150625.071000", "150625.073000", "150625.076000", "150625.078000", "150625.081000", "150625.083000", "150625.085000", "150625.088000", "150625.090000", "150625.093000", "150625.095000", "150625.097000", "150625.100000", "150625.102000", "150625.105000", "150625.107000", "150625.110000", "150625.112000", "150625.114000", "150625.117000", "150625.119000", "150625.122000", "150625.124000", "150625.126000", "150645.049000", "150645.052000", "150645.054000", "150645.057000", "150645.059000", "150645.062000", "150645.064000", "150645.067000", "150645.069000", "150645.072000", "150645.074000", "150645.077000", "150645.079000", "150645.082000", "150645.084000", "150645.086000", "150645.089000", "150645.091000", "150645.094000", "150645.096000", "150645.099000", "150645.104000", "150645.106000", "150645.109000", "150645.111000", "150645.114000", "150645.116000", "150645.119000", "150645.121000", "150645.123000", "150645.126000", "150645.128000", "150645.131000", "150705.049000", "150705.052000", "150705.055000", "150705.057000", "150705.060000", "150705.062000", "150705.064000", "150705.067000", "150705.069000", "150705.072000", "150705.074000", "150705.077000", "150705.079000", "150705.081000", "150705.084000", "150705.086000", "150705.089000", "150705.091000", "150705.093000", "150705.096000", "150705.098000", "150705.101000", "150705.103000", "150705.106000", "150705.108000", "150705.110000", "150705.113000", "150705.115000", "150705.118000", "150705.120000", "150705.123000", "150705.125000", "150705.127000", "150713.493000", "150713.496000", "150713.498000", "150713.501000", "150713.503000", "150713.506000", "150713.508000", "150713.511000", "150713.513000", "150713.518000", "150713.522000", "150713.525000", "150713.527000", "150713.530000"], "InstanceCreationTime": ["150225.061000", "150225.064000", "150225.066000", "150225.069000", "150225.071000", "150225.073000", "150225.076000", "150225.078000", "150225.081000", "150225.083000", "150225.086000", "150225.088000", "150225.091000", "150225.093000", "150225.095000", "150225.098000", "150225.106000", "150225.108000", "150225.111000", "150225.113000", "150225.116000", "150225.118000", "150225.125000", "150225.128000", "150225.130000", "150225.133000", "150225.135000", "150225.138000", "150225.140000", "150225.142000", "150225.153000", "150225.155000", "150225.157000", "150225.160000", "150225.162000", "150225.165000", "150225.167000", "150245.049000", "150245.052000", "150245.054000", "150245.057000", "150245.059000", "150245.061000", "150245.069000", "150245.072000", "150245.074000", "150245.077000", "150245.079000", "150245.081000", "150245.084000", "150245.087000", "150245.089000", "150245.091000", "150245.094000", "150245.096000", "150245.098000", "150245.101000", "150245.103000", "150245.106000", "150245.108000", "150245.110000", "150245.113000", "150245.115000", "150245.118000", "150245.120000", "150245.122000", "150245.125000", "150245.128000", "150245.131000", "150305.049000", "150305.052000", "150305.054000", "150305.057000", "150305.059000", "150305.061000", "150305.064000", "150305.066000", "150305.069000", "150305.071000", "150305.073000", "150305.076000", "150305.078000", "150305.081000", "150305.085000", "150305.088000", "150305.091000", "150305.093000", "150305.103000", "150305.105000", "150305.107000", "150305.110000", "150305.121000", "150305.124000", "150305.126000", "150305.128000", "150305.131000", "150305.133000", "150305.135000", "150305.138000", "150305.140000", "150305.143000", "150305.145000", "150325.049000", "150325.052000", "150325.054000", "150325.057000", "150325.059000", "150325.061000", "150325.064000", "150325.066000", "150325.069000", "150325.071000", "150325.074000", "150325.076000", "150325.078000", "150325.081000", "150325.083000", "150325.086000", "150325.088000", "150325.091000", "150325.093000", "150325.096000", "150325.098000", "150325.100000", "150325.103000", "150325.105000", "150325.108000", "150325.110000", "150325.113000", "150325.115000", "150325.117000", "150325.120000", "150325.122000", "150325.125000", "150325.127000", "150345.049000", "150345.052000", "150345.054000", "150345.057000", "150345.059000", "150345.061000", "150345.064000", "150345.066000", "150345.069000", "150345.071000", "150345.073000", "150345.076000", "150345.078000", "150345.080000", "150345.083000", "150345.085000", "150345.088000", "150345.090000", "150345.092000", "150345.095000", "150345.097000", "150345.100000", "150345.102000", "150345.104000", "150345.107000", "150345.109000", "150345.112000", "150345.114000", "150345.116000", "150345.119000", "150345.121000", "150345.124000", "150345.126000", "150405.049000", "150405.052000", "150405.061000", "150405.063000", "150405.066000", "150405.071000", "150405.073000", "150405.076000", "150405.078000", "150405.081000", "150405.083000", "150405.085000", "150405.088000", "150405.090000", "150405.093000", "150405.095000", "150405.097000", "150405.100000", "150405.102000", "150405.105000", "150405.107000", "150405.110000", "150405.112000", "150405.115000", "150405.118000", "150405.120000", "150405.123000", "150405.125000", "150405.127000", "150405.130000", "150405.132000", "150405.135000", "150405.137000", "150425.049000", "150425.052000", "150425.054000", "150425.057000", "150425.059000", "150425.062000", "150425.064000", "150425.067000", "150425.069000", "150425.072000", "150425.074000", "150425.076000", "150425.079000", "150425.081000", "150425.084000", "150425.086000", "150425.089000", "150425.091000", "150425.093000", "150425.096000", "150425.098000", "150425.101000", "150425.103000", "150425.105000", "150425.108000", "150425.110000", "150425.113000", "150425.115000", "150425.117000", "150425.120000", "150425.122000", "150425.135000", "150445.049000", "150445.052000", "150445.054000", "150445.057000", "150445.059000", "150445.061000", "150445.064000", "150445.066000", "150445.068000", "150445.071000", "150445.073000", "150445.076000", "150445.078000", "150445.081000", "150445.083000", "150445.086000", "150445.088000", "150445.090000", "150445.093000", "150445.095000", "150445.098000", "150445.100000", "150445.102000", "150445.105000", "150445.108000", "150445.110000", "150445.112000", "150445.115000", "150445.117000", "150445.120000", "150445.122000", "150445.124000", "150445.127000", "150505.049000", "150505.052000", "150505.054000", "150505.057000", "150505.059000", "150505.061000", "150505.064000", "150505.066000", "150505.068000", "150505.071000", "150505.073000", "150505.076000", "150505.078000", "150505.081000", "150505.083000", "150505.085000", "150505.088000", "150505.108000", "150505.110000", "150505.113000", "150505.115000", "150505.118000", "150505.120000", "150505.122000", "150505.125000", "150505.127000", "150505.130000", "150505.132000", "150505.134000", "150505.137000", "150505.139000", "150505.142000", "150505.144000", "150525.049000", "150525.052000", "150525.054000", "150525.057000", "150525.059000", "150525.062000", "150525.064000", "150525.067000", "150525.069000", "150525.071000", "150525.074000", "150525.076000", "150525.079000", "150525.081000", "150525.083000", "150525.086000", "150525.088000", "150525.091000", "150525.093000", "150525.096000", "150525.098000", "150525.101000", "150525.103000", "150525.106000", "150525.108000", "150525.110000", "150525.113000", "150525.115000", "150525.118000", "150525.120000