{"AcquisitionMatrixPE": 64, "AcquisitionNumber": 1, "AcquisitionTime": "14:12:47.705000", "BandwidthPerPixelPhaseEncode": 28.935, "BaseResolution": 64, "BodyPartExamined": "BRAIN", "CoilCombinationMethod": "Sum of Squares", "ConsistencyInfo": "N4_VE11E_LATEST_20181129", "ConversionSoftware": "dcm2niix", "ConversionSoftwareVersion": "v1.0.20230411", "DerivedVendorReportedEchoSpacing": 0.000540003, "DeviceSerialNumber": "166182", "DwellTime": 3.4e-06, "EchoTime": 0.032, "EchoTrainLength": 64, "EffectiveEchoSpacing": 0.000540003, "FlipAngle": 40, "HeudiconvVersion": "0.13.1", "ImageOrientationPatientDICOM": [0.984783, 0.172808, 0.0184203, -0.173644, 0.982729, 0.0639653], "ImageOrientationText": "Tra>Cor(3.8)>Sag(0.4)", "ImageType": ["ORIGINAL", "PRIMARY", "M", "ND", "NORM", "MOSAIC"], "ImagingFrequency": 123.255987, "InPlanePhaseEncodingDirectionDICOM": "COL", "InstitutionAddress": "PEARSE STREET .,City,District,IE,D2", "InstitutionName": "TCIN", "InstitutionalDepartmentName": "MRI", "MRAcquisitionType": "2D", "MagneticFieldStrength": 3, "Manufacturer": "Siemens", "ManufacturersModelName": "Prisma", "Modality": "MR", "MultibandAccelerationFactor": 4, "NonlinearGradientCorrection": false, "PartialFourier": 1, "PatientPosition": "HFS", "PercentPhaseFOV": 100, "PercentSampling": 100, "PhaseEncodingDirection": "j-", "PhaseEncodingSteps": 64, "PhaseResolution": 1, "PixelBandwidth": 2300, "ProcedureStepDescription": "Rhodri^Head BOLD", "ProtocolName": "cmrr_mbep2d_Pictures_AP_RDS", "PulseSequenceDetails": "%SiemensSeq%\\ep2d_bold", "ReceiveCoilActiveElements": "HC2,4,6,7;SC", "ReceiveCoilName": "SpecialPurpose_4", "ReconMatrixPE": 64, "RefLinesPE": 12, "RepetitionTime": 0.61, "SAR": 0.264574, "ScanOptions": "FS", "ScanningSequence": "EP", "SequenceName": "*epfid2d1_64", "SequenceVariant": "SK", "SeriesDescription": "cmrr_mbep2d_Pictures_AP_RDS", "SeriesNumber": 8, "ShimSetting": [-3616, -7406, 3870, 920, -89, -86, -9, -13], "SliceThickness": 3, "SliceTiming": [0.2625, 0, 0.3275, 0.065, 0.3925, 0.1325, 0.46, 0.1975, 0.525, 0.2625, 0, 0.3275, 0.065, 0.3925, 0.1325, 0.46, 0.1975, 0.525, 0.2625, 0, 0.3275, 0.065, 0.3925, 0.1325, 0.46, 0.1975, 0.525, 0.2625, 0, 0.3275, 0.065, 0.3925, 0.1325, 0.46, 0.1975, 0.525], "SoftwareVersions": "syngo MR E11", "SpacingBetweenSlices": 3.3, "StationName": "AWP166182", "TaskName": "pictures", "TotalReadoutTime": 0.0340202, "TxRefAmp": 225.009, "dcmmeta_affine": [[-2.9543497562408447, -0.5209315419197083, 0.023259896785020828, 110.91374969482422], [-0.5184236168861389, 2.9481868743896484, 0.21842867136001587, -89.17667388916016], [0.055260881781578064, -0.19189582765102386, 3.2926809787750244, -88.70747375488281], [0.0, 0.0, 0.0, 1.0]], "dcmmeta_reorient_transform": [[0.0, -1.0, 0.0, 63.0], [1.0, 0.0, 0.0, 0.0], [0.0, 0.0, 1.0, 0.0], [0.0, 0.0, 0.0, 1.0]], "dcmmeta_shape": [64, 64, 36, 510], "dcmmeta_slice_dim": 2, "dcmmeta_version": 0.6, "global": {"const": {"AcquisitionMatrix": [64, 0, 0, 64], "AngioFlag": "N", "BitsAllocated": 16, "BitsStored": 12, "BodyPartExamined": "BRAIN", "Columns": 384, "EchoNumbers": 1, "EchoTime": 32.0, "EchoTrainLength": 64, "FlipAngle": 40.0, "HighBit": 11, "ImageOrientationPatient": [0.98478329152834, 0.17280787447527, 0.0184202944048, -0.17364385399, 0.98272898363589, 0.06396527724838], "ImagePositionPatient": [-467.44199425736, -651.21679279492, -140.34198294899], "ImageType": ["ORIGINAL", "PRIMARY", "M", "ND", "NORM", "MOSAIC"], "ImagedNucleus": "1H", "ImagingFrequency": 123.255987, "InPlanePhaseEncodingDirection": "COL", "MRAcquisitionType": "2D", "MagneticFieldStrength": 3.0, "Manufacturer": "SIEMENS", "ManufacturerModelName": "Prisma", "Modality": "MR", "NumberOfAverages": 1.0, "NumberOfPhaseEncodingSteps": 64, "PercentPhaseFieldOfView": 100.0, "PercentSampling": 100.0, "PerformedProcedureStepStartTime": "140013.629000", "PhotometricInterpretation": "MONOCHROME2", "PixelBandwidth": 2300.0, "PixelRepresentation": 0, "PixelSpacing": [3.0, 3.0], "ProtocolName": "cmrr_mbep2d_Pictures_AP_RDS", "RepetitionTime": 610.0, "Rows": 384, "SAR": 0.26457405635719, "SamplesPerPixel": 1, "ScanOptions": "FS", "ScanningSequence": "EP", "SequenceName": "*epfid2d1_64", "SequenceVariant": "SK", "SeriesDescription": "cmrr_mbep2d_Pictures_AP_RDS", "SeriesNumber": 8, "SeriesTime": "141313.233000", "SliceLocation": -93.631606651266, "SliceThickness": 3.0, "SmallestImagePixelValue": 0, "SoftwareVersions": "syngo MR E11", "SpacingBetweenSlices": 3.3000000541944, "SpecificCharacterSet": "ISO_IR 100", "StudyID": "1", "StudyTime": "140013.495000", "TransmitCoilName": "Body", "VariableFlipAngleFlag": "N", "WindowCenterWidthExplanation": "Algo1"}, "slices": {}}, "time": {"samples": {"AcquisitionNumber": [1, 2, 3, 4, 5, 6, 7, 8, 9, 10, 11, 12, 13, 14, 15, 16, 17, 18, 19, 20, 21, 22, 23, 24, 25, 26, 27, 28, 29, 30, 31, 32, 33, 34, 35, 36, 37, 38, 39, 40, 41, 42, 43, 44, 45, 46, 47, 48, 49, 50, 51, 52, 53, 54, 55, 56, 57, 58, 59, 60, 61, 62, 63, 64, 65, 66, 67, 68, 69, 70, 71, 72, 73, 74, 75, 76, 77, 78, 79, 80, 81, 82, 83, 84, 85, 86, 87, 88, 89, 90, 91, 92, 93, 94, 95, 96, 97, 98, 99, 100, 101, 102, 103, 104, 105, 106, 107, 108, 109, 110, 111, 112, 113, 114, 115, 116, 117, 118, 119, 120, 121, 122, 123, 124, 125, 126, 127, 128, 129, 130, 131, 132, 133, 134, 135, 136, 137, 138, 139, 140, 141, 142, 143, 144, 145, 146, 147, 148, 149, 150, 151, 152, 153, 154, 155, 156, 157, 158, 159, 160, 161, 162, 163, 164, 165, 166, 167, 168, 169, 170, 171, 172, 173, 174, 175, 176, 177, 178, 179, 180, 181, 182, 183, 184, 185, 186, 187, 188, 189, 190, 191, 192, 193, 194, 195, 196, 197, 198, 199, 200, 201, 202, 203, 204, 205, 206, 207, 208, 209, 210, 211, 212, 213, 214, 215, 216, 217, 218, 219, 220, 221, 222, 223, 224, 225, 226, 227, 228, 229, 230, 231, 232, 233, 234, 235, 236, 237, 238, 239, 240, 241, 242, 243, 244, 245, 246, 247, 248, 249, 250, 251, 252, 253, 254, 255, 256, 257, 258, 259, 260, 261, 262, 263, 264, 265, 266, 267, 268, 269, 270, 271, 272, 273, 274, 275, 276, 277, 278, 279, 280, 281, 282, 283, 284, 285, 286, 287, 288, 289, 290, 291, 292, 293, 294, 295, 296, 297, 298, 299, 300, 301, 302, 303, 304, 305, 306, 307, 308, 309, 310, 311, 312, 313, 314, 315, 316, 317, 318, 319, 320, 321, 322, 323, 324, 325, 326, 327, 328, 329, 330, 331, 332, 333, 334, 335, 336, 337, 338, 339, 340, 341, 342, 343, 344, 345, 346, 347, 348, 349, 350, 351, 352, 353, 354, 355, 356, 357, 358, 359, 360, 361, 362, 363, 364, 365, 366, 367, 368, 369, 370, 371, 372, 373, 374, 375, 376, 377, 378, 379, 380, 381, 382, 383, 384, 385, 386, 387, 388, 389, 390, 391, 392, 393, 394, 395, 396, 397, 398, 399, 400, 401, 402, 403, 404, 405, 406, 407, 408, 409, 410, 411, 412, 413, 414, 415, 416, 417, 418, 419, 420, 421, 422, 423, 424, 425, 426, 427, 428, 429, 430, 431, 432, 433, 434, 435, 436, 437, 438, 439, 440, 441, 442, 443, 444, 445, 446, 447, 448, 449, 450, 451, 452, 453, 454, 455, 456, 457, 458, 459, 460, 461, 462, 463, 464, 465, 466, 467, 468, 469, 470, 471, 472, 473, 474, 475, 476, 477, 478, 479, 480, 481, 482, 483, 484, 485, 486, 487, 488, 489, 490, 491, 492, 493, 494, 495, 496, 497, 498, 499, 500, 501, 502, 503, 504, 505, 506, 507, 508, 509, 510], "AcquisitionTime": ["141247.705000", "141248.315000", "141248.925000", "141249.535000", "141250.145000", "141250.755000", "141251.365000", "141251.975000", "141252.585000", "141253.195000", "141253.805000", "141254.415000", "141255.025000", "141255.635000", "141256.245000", "141256.855000", "141257.465000", "141258.075000", "141258.685000", "141259.295000", "141259.905000", "141300.515000", "141301.125000", "141301.735000", "141302.345000", "141302.955000", "141303.565000", "141304.175000", "141304.785000", "141305.395000", "141306.005000", "141306.615000", "141307.225000", "141307.835000", "141308.445000", "141309.055000", "141309.665000", "141310.275000", "141310.885000", "141311.495000", "141312.105000", "141312.715000", "141313.325000", "141313.935000", "141314.545000", "141315.155000", "141315.765000", "141316.375000", "141316.985000", "141317.595000", "141318.205000", "141318.815000", "141319.425000", "141320.035000", "141320.645000", "141321.255000", "141321.865000", "141322.475000", "141323.085000", "141323.695000", "141324.305000", "141324.915000", "141325.525000", "141326.135000", "141326.745000", "141327.355000", "141327.965000", "141328.575000", "141329.185000", "141329.795000", "141330.405000", "141331.015000", "141331.625000", "141332.235000", "141332.845000", "141333.455000", "141334.065000", "141334.675000", "141335.285000", "141335.895000", "141336.505000", "141337.115000", "141337.725000", "141338.335000", "141338.945000", "141339.555000", "141340.165000", "141340.775000", "141341.385000", "141341.995000", "141342.605000", "141343.215000", "141343.825000", "141344.435000", "141345.045000", "141345.655000", "141346.265000", "141346.875000", "141347.485000", "141348.095000", "141348.705000", "141349.315000", "141349.925000", "141350.535000", "141351.145000", "141351.755000", "141352.365000", "141352.975000", "141353.585000", "141354.195000", "141354.805000", "141355.415000", "141356.025000", "141356.635000", "141357.245000", "141357.855000", "141358.465000", "141359.075000", "141359.685000", "141400.295000", "141400.905000", "141401.515000", "141402.125000", "141402.735000", "141403.345000", "141403.955000", "141404.565000", "141405.175000", "141405.785000", "141406.395000", "141407.005000", "141407.615000", "141408.225000", "141408.835000", "141409.445000", "141410.055000", "141410.665000", "141411.275000", "141411.885000", "141412.495000", "141413.105000", "141413.715000", "141414.325000", "141414.935000", "141415.545000", "141416.155000", "141416.765000", "141417.375000", "141417.985000", "141418.595000", "141419.205000", "141419.815000", "141420.425000", "141421.035000", "141421.645000", "141422.255000", "141422.865000", "141423.475000", "141424.085000", "141424.695000", "141425.305000", "141425.915000", "141426.525000", "141427.135000", "141427.745000", "141428.355000", "141428.965000", "141429.575000", "141430.185000", "141430.795000", "141431.405000", "141432.015000", "141432.625000", "141433.235000", "141433.845000", "141434.455000", "141435.065000", "141435.675000", "141436.285000", "141436.895000", "141437.505000", "141438.115000", "141438.725000", "141439.335000", "141439.945000", "141440.555000", "141441.165000", "141441.775000", "141442.385000", "141442.995000", "141443.605000", "141444.215000", "141444.825000", "141445.435000", "141446.045000", "141446.655000", "141447.265000", "141447.875000", "141448.485000", "141449.095000", "141449.705000", "141450.315000", "141450.925000", "141451.535000", "141452.145000", "141452.755000", "141453.365000", "141453.975000", "141454.585000", "141455.195000", "141455.805000", "141456.415000", "141457.025000", "141457.635000", "141458.245000", "141458.855000", "141459.465000", "141500.075000", "141500.685000", "141501.295000", "141501.905000", "141502.515000", "141503.125000", "141503.735000", "141504.345000", "141504.955000", "141505.565000", "141506.175000", "141506.785000", "141507.395000", "141508.005000", "141508.615000", "141509.225000", "141509.835000", "141510.445000", "141511.055000", "141511.665000", "141512.275000", "141512.885000", "141513.495000", "141514.105000", "141514.715000", "141515.325000", "141515.935000", "141516.545000", "141517.155000", "141517.765000", "141518.375000", "141518.985000", "141519.595000", "141520.205000", "141520.815000", "141521.425000", "141522.035000", "141522.645000", "141523.255000", "141523.865000", "141524.475000", "141525.085000", "141525.695000", "141526.305000", "141526.915000", "141527.525000", "141528.135000", "141528.745000", "141529.355000", "141529.965000", "141530.575000", "141531.185000", "141531.795000", "141532.405000", "141533.015000", "141533.625000", "141534.235000", "141534.845000", "141535.455000", "141536.065000", "141536.675000", "141537.285000", "141537.895000", "141538.505000", "141539.115000", "141539.725000", "141540.335000", "141540.945000", "141541.555000", "141542.165000", "141542.775000", "141543.385000", "141543.995000", "141544.605000", "141545.215000", "141545.825000", "141546.435000", "141547.045000", "141547.655000", "141548.265000", "141548.875000", "141549.485000", "141550.095000", "141550.705000", "141551.315000", "141551.925000", "141552.535000", "141553.145000", "141553.755000", "141554.365000", "141554.975000", "141555.585000", "141556.195000", "141556.805000", "141557.415000", "141558.025000", "141558.635000", "141559.245000", "141559.855000", "141600.465000", "141601.075000", "141601.685000", "141602.295000", "141602.905000", "141603.515000", "141604.125000", "141604.735000", "141605.345000", "141605.955000", "141606.565000", "141607.175000", "141607.785000", "141608.395000", "141609.005000", "141609.615000", "141610.225000", "141610.835000", "141611.445000", "141612.055000", "141612.665000", "141613.275000", "141613.885000", "141614.495000", "141615.105000", "141615.715000", "141616.325000", "141616.935000", "141617.545000", "141618.155000", "141618.765000", "141619.375000", "141619.985000", "141620.595000", "141621.205000", "141621.815000", "141622.425000", "141623.035000", "141623.645000", "141624.255000", "141624.865000", "141625.475000", "141626.085000", "141626.695000", "141627.305000", "141627.915000", "141628.525000", "141629.135000", "141629.745000", "141630.355000", "141630.965000", "141631.575000", "141632.185000", "141632.795000", "141633.405000", "141634.015000", "141634.625000", "141635.235000", "141635.845000", "141636.455000", "141637.065000", "141637.675000", "141638.285000", "141638.895000", "141639.505000", "141640.115000", "141640.725000", "141641.335000", "141641.945000", "141642.555000", "141643.165000", "141643.775000", "141644.385000", "141644.995000", "141645.605000", "141646.215000", "141646.825000", "141647.435000", "141648.045000", "141648.655000", "141649.265000", "141649.875000", "141650.485000", "141651.095000", "141651.705000", "141652.315000", "141652.925000", "141653.535000", "141654.145000", "141654.755000", "141655.365000", "141655.975000", "141656.585000", "141657.195000", "141657.805000", "141658.415000", "141659.025000", "141659.635000", "141700.245000", "141700.855000", "141701.465000", "141702.075000", "141702.685000", "141703.295000", "141703.905000", "141704.515000", "141705.125000", "141705.735000", "141706.345000", "141706.955000", "141707.565000", "141708.175000", "141708.785000", "141709.395000", "141710.005000", "141710.615000", "141711.225000", "141711.835000", "141712.445000", "141713.055000", "141713.665000", "141714.275000", "141714.885000", "141715.495000", "141716.105000", "141716.715000", "141717.325000", "141717.935000", "141718.545000", "141719.155000", "141719.765000", "141720.375000", "141720.985000", "141721.595000", "141722.205000", "141722.815000", "141723.425000", "141724.035000", "141724.645000", "141725.255000", "141725.865000", "141726.475000", "141727.085000", "141727.695000", "141728.305000", "141728.915000", "141729.525000", "141730.135000", "141730.745000", "141731.355000", "141731.965000", "141732.575000", "141733.185000", "141733.795000", "141734.405000", "141735.015000", "141735.625000", "141736.235000", "141736.845000", "141737.455000", "141738.065000", "141738.675000", "141739.285000", "141739.895000", "141740.505000", "141741.115000", "141741.725000", "141742.335000", "141742.945000", "141743.555000", "141744.165000", "141744.775000", "141745.385000", "141745.995000", "141746.605000", "141747.215000", "141747.825000", "141748.435000", "141749.045000", "141749.655000", "141750.265000", "141750.875000", "141751.485000", "141752.095000", "141752.705000", "141753.315000", "141753.925000", "141754.535000", "141755.145000", "141755.755000", "141756.365000", "141756.975000", "141757.585000", "141758.195000"], "ContentTime": ["141313.237000", "141313.269000", "141313.271000", "141313.274000", "141313.276000", "141313.278000", "141313.281000", "141313.283000", "141313.285000", "141313.290000", "141313.293000", "141313.295000", "141313.297000", "141313.300000", "141313.302000", "141313.304000", "141313.307000", "141313.309000", "141313.312000", "141313.314000", "141313.316000", "141313.319000", "141313.321000", "141313.323000", "141313.326000", "141313.328000", "141313.330000", "141313.333000", "141313.335000", "141313.337000", "141313.340000", "141313.342000", "141313.344000", "141313.347000", "141313.349000", "141313.351000", "141313.354000", "141313.356000", "141313.359000", "141313.373000", "141313.375000", "141333.232000", "141333.242000", "141333.244000", "141333.247000", "141333.249000", "141333.251000", "141333.254000", "141333.256000", "141333.259000", "141333.261000", "141333.263000", "141333.266000", "141333.268000", "141333.270000", "141333.273000", "141333.275000", "141333.277000", "141333.280000", "141333.282000", "141333.285000", "141333.287000", "141333.289000", "141333.292000", "141333.294000", "141333.296000", "141333.299000", "141333.301000", "141333.303000", "141333.305000", "141333.308000", "141333.310000", "141333.312000", "141333.315000", "141353.232000", "141353.235000", "141353.237000", "141353.239000", "141353.242000", "141353.244000", "141353.246000", "141353.256000", "141353.258000", "141353.260000", "141353.263000", "141353.265000", "141353.267000", "141353.270000", "141353.272000", "141353.274000", "141353.276000", "141353.279000", "141353.281000", "141353.284000", "141353.286000", "141353.288000", "141353.291000", "141353.293000", "141353.295000", "141353.298000", "141353.300000", "141353.302000", "141353.304000", "141353.307000", "141353.309000", "141353.311000", "141353.314000", "141413.232000", "141413.235000", "141413.237000", "141413.239000", "141413.242000", "141413.244000", "141413.246000", "141413.249000", "141413.251000", "141413.253000", "141413.256000", "141413.258000", "141413.260000", "141413.263000", "141413.265000", "141413.267000", "141413.270000", "141413.272000", "141413.274000", "141413.277000", "141413.279000", "141413.281000", "141413.284000", "141413.286000", "141413.288000", "141413.291000", "141413.293000", "141413.296000", "141413.303000", "141413.306000", "141413.308000", "141413.311000", "141413.313000", "141433.232000", "141433.235000", "141433.237000", "141433.240000", "141433.242000", "141433.244000", "141433.247000", "141433.249000", "141433.252000", "141433.254000", "141433.256000", "141433.259000", "141433.261000", "141433.263000", "141433.266000", "141433.268000", "141433.270000", "141433.273000", "141433.275000", "141433.278000", "141433.281000", "141433.283000", "141433.285000", "141433.288000", "141433.290000", "141433.292000", "141433.295000", "141433.297000", "141433.300000", "141433.302000", "141433.304000", "141433.307000", "141453.232000", "141453.235000", "141453.237000", "141453.239000", "141453.243000", "141453.245000", "141453.248000", "141453.250000", "141453.252000", "141453.255000", "141453.257000", "141453.259000", "141453.262000", "141453.264000", "141453.266000", "141453.269000", "141453.271000", "141453.273000", "141453.276000", "141453.278000", "141453.280000", "141453.283000", "141453.285000", "141453.287000", "141453.290000", "141453.292000", "141453.294000", "141453.297000", "141453.299000", "141453.302000", "141453.304000", "141453.306000", "141453.309000", "141513.232000", "141513.235000", "141513.237000", "141513.239000", "141513.242000", "141513.244000", "141513.247000", "141513.249000", "141513.251000", "141513.254000", "141513.256000", "141513.258000", "141513.261000", "141513.263000", "141513.265000", "141513.268000", "141513.270000", "141513.272000", "141513.275000", "141513.277000", "141513.279000", "141513.282000", "141513.284000", "141513.286000", "141513.289000", "141513.291000", "141513.294000", "141513.296000", "141513.298000", "141513.301000", "141513.303000", "141513.305000", "141513.308000", "141533.232000", "141533.235000", "141533.237000", "141533.239000", "141533.242000", "141533.244000", "141533.247000", "141533.249000", "141533.251000", "141533.254000", "141533.256000", "141533.259000", "141533.261000", "141533.263000", "141533.266000", "141533.268000", "141533.270000", "141533.273000", "141533.275000", "141533.278000", "141533.280000", "141533.282000", "141533.285000", "141533.287000", "141533.289000", "141533.292000", "141533.294000", "141533.296000", "141533.299000", "141533.301000", "141533.303000", "141533.306000", "141533.308000", "141553.232000", "141553.235000", "141553.237000", "141553.239000", "141553.242000", "141553.244000", "141553.247000", "141553.249000", "141553.251000", "141553.254000", "141553.256000", "141553.258000", "141553.261000", "141553.263000", "141553.265000", "141553.268000", "141553.270000", "141553.272000", "141553.275000", "141553.277000", "141553.280000", "141553.282000", "141553.284000", "141553.287000", "141553.289000", "141553.291000", "141553.294000", "141553.296000", "141553.298000", "141553.301000", "141553.303000", "141553.305000", "141553.308000", "141613.232000", "141613.235000", "141613.237000", "141613.240000", "141613.242000", "141613.244000", "141613.247000", "141613.249000", "141613.251000", "141613.254000", "141613.256000", "141613.258000", "141613.261000", "141613.263000", "141613.266000", "141613.268000", "141613.270000", "141613.273000", "141613.275000", "141613.277000", "141613.280000", "141613.282000", "141613.284000", "141613.287000", "141613.289000", "141613.291000", "141613.294000", "141613.296000", "141613.298000", "141613.301000", "141613.317000", "141613.320000", "141633.232000", "141633.235000", "141633.237000", "141633.239000", "141633.242000", "141633.244000", "141633.247000", "141633.249000", "141633.251000", "141633.254000", "141633.256000", "141633.258000", "141633.261000", "141633.263000", "141633.265000", "141633.268000", "141633.270000", "141633.272000", "141633.275000", "141633.277000", "141633.280000", "141633.282000", "141633.284000", "141633.287000", "141633.289000", "141633.292000", "141633.294000", "141633.296000", "141633.299000", "141633.301000", "141633.303000", "141633.306000", "141633.308000", "141653.232000", "141653.235000", "141653.237000", "141653.239000", "141653.242000", "141653.244000", "141653.247000", "141653.249000", "141653.251000", "141653.254000", "141653.256000", "141653.258000", "141653.261000", "141653.263000", "141653.265000", "141653.268000", "141653.270000", "141653.273000", "141653.276000", "141653.278000", "141653.280000", "141653.283000", "141653.285000", "141653.287000", "141653.290000", "141653.292000", "141653.294000", "141653.297000", "141653.299000", "141653.301000", "141653.304000", "141653.306000", "141653.308000", "141713.232000", "141713.235000", "141713.237000", "141713.240000", "141713.242000", "141713.244000", "141713.247000", "141713.249000", "141713.251000", "141713.254000", "141713.256000", "141713.258000", "141713.261000", "141713.263000", "141713.265000", "141713.268000", "141713.270000", "141713.272000", "141713.275000", "141713.277000", "141713.279000", "141713.282000", "141713.284000", "141713.286000", "141713.289000", "141713.291000", "141713.294000", "141713.296000", "141713.298000", "141713.301000", "141713.303000", "141713.305000", "141713.308000", "141733.232000", "141733.235000", "141733.237000", "141733.239000", "141733.242000", "141733.244000", "141733.247000", "141733.249000", "141733.251000", "141733.254000", "141733.256000", "141733.258000", "141733.261000", "141733.263000", "141733.265000", "141733.268000", "141733.270000", "141733.273000", "141733.275000", "141733.277000", "141733.280000", "141733.282000", "141733.284000", "141733.287000", "141733.289000", "141733.291000", "141733.294000", "141733.296000", "141733.298000", "141733.301000", "141733.303000", "141733.305000", "141733.308000", "141753.232000", "141753.235000", "141753.237000", "141753.239000", "141753.242000", "141753.244000", "141753.247000", "141753.249000", "141753.251000", "141753.254000", "141753.256000", "141753.258000", "141753.261000", "141753.263000", "141753.265000", "141753.268000", "141753.270000", "141753.272000", "141753.275000", "141753.277000", "141753.279000", "141753.282000", "141753.284000", "141753.287000", "141753.289000", "141753.291000", "141753.294000", "141753.296000", "141753.298000", "141753.301000", "141753.303000", "141753.305000", "141758.806000", "141758.809000", "141758.812000", "141758.814000", "141758.817000", "141758.819000", "141758.821000", "141758.824000", "141758.826000", "141758.828000"], "InstanceCreationTime": ["141313.237000", "141313.269000", "141313.271000", "141313.274000", "141313.276000", "141313.278000", "141313.281000", "141313.283000", "141313.285000", "141313.290000", "141313.293000", "141313.295000", "141313.297000", "141313.300000", "141313.302000", "141313.304000", "141313.307000", "141313.309000", "141313.312000", "141313.314000", "141313.316000", "141313.319000", "141313.321000", "141313.323000", "141313.326000", "141313.328000", "141313.330000", "141313.333000", "141313.335000", "141313.337000", "141313.340000", "141313.342000", "141313.344000", "141313.347000", "141313.349000", "141313.351000", "141313.354000", "141313.356000", "141313.359000", "141313.373000", "141313.375000", "141333.232000", "141333.242000", "141333.244000", "141333.247000", "141333.249000", "141333.251000", "141333.254000", "141333.256000", "141333.259000", "141333.261000", "141333.263000", "141333.266000", "141333.268000", "141333.270000", "141333.273000", "141333.275000", "141333.277000", "141333.280000", "141333.282000", "141333.285000", "141333.287000", "141333.289000", "141333.292000", "141333.294000", "141333.296000", "141333.299000", "141333.301000", "141333.303000", "141333.305000", "141333.308000", "141333.310000", "141333.312000", "141333.315000", "141353.232000", "141353.235000", "141353.237000", "141353.239000", "141353.242000", "141353.244000", "141353.246000", "141353.256000", "141353.258000", "141353.260000", "141353.263000", "141353.265000", "141353.267000", "141353.270000", "141353.272000", "141353.274000", "141353.276000", "141353.279000", "141353.281000", "141353.284000", "141353.286000", "141353.288000", "141353.291000", "141353.293000", "141353.295000", "141353.298000", "141353.300000", "141353.302000", "141353.304000", "141353.307000", "141353.309000", "141353.311000", "141353.314000", "141413.232000", "141413.235000", "141413.237000", "141413.239000", "141413.242000", "141413.244000", "141413.246000", "141413.249000", "141413.251000", "141413.253000", "141413.256000", "141413.258000", "141413.260000", "141413.263000", "141413.265000", "141413.267000", "141413.270000", "141413.272000", "141413.274000", "141413.277000", "141413.279000", "141413.281000", "141413.284000", "141413.286000", "141413.288000", "141413.291000", "141413.293000", "141413.296000", "141413.303000", "141413.306000", "141413.308000", "141413.311000", "141413.313000", "141433.232000", "141433.235000", "141433.237000", "141433.240000", "141433.242000", "141433.244000", "141433.247000", "141433.249000", "141433.252000", "141433.254000", "141433.256000", "141433.259000", "141433.261000", "141433.263000", "141433.266000", "141433.268000", "141433.270000", "141433.273000", "141433.275000", "141433.278000", "141433.281000", "141433.283000", "141433.285000", "141433.288000", "141433.290000", "141433.292000", "141433.295000", "141433.297000", "141433.300000", "141433.302000", "141433.304000", "141433.307000", "141453.232000", "141453.235000", "141453.237000", "141453.239000", "141453.243000", "141453.245000", "141453.248000", "141453.250000", "141453.252000", "141453.255000", "141453.257000", "141453.259000", "141453.262000", "141453.264000", "141453.266000", "141453.269000", "141453.271000", "141453.273000", "141453.276000", "141453.278000", "141453.280000", "141453.283000", "141453.285000", "141453.287000", "141453.290000", "141453.292000", "141453.294000", "141453.297000", "141453.299000", "141453.302000", "141453.304000", "141453.306000", "141453.309000", "141513.232000", "141513.235000", "141513.237000", "141513.239000", "141513.242000", "141513.244000", "141513.247000", "141513.249000", "141513.251000", "141513.254000", "141513.256000", "141513.258000", "141513.261000", "141513.263000", "141513.265000", "141513.268000", "141513.270000", "141513.272000", "141513.275000", "141513.277000", "141513.279000", "141513.282000", "141513.284000", "141513.286000", "141513.289000", "141513.291000", "141513.294000", "141513.296000", "141513.298000", "141513.301000", "141513.303000", "141513.305000", "141513.308000", "141533.232000", "141533.235000", "141533.237000", "141533.239000", "141533.242000", "141533.244000", "141533.247000", "141533.249000", "141533.251000", "141533.254000", "141533.256000", "141533.259000", "141533.261000", "141533.263000", "141533.266000", "141533.268000", "141533.270000", "141533.273000", "141533.275000", "141533.278000", "141533.280000", "141533.282000", "141533.285000", "141533.287000", "141533.289000", "141533.292000", "141533.294000", "141533.296000", "141533.299000", "141533.301000", "141533.303000", "141533.306000", "141533.308000", "141553.232000", "141553.235000", "141553.237000", "141553.239000", "141553.242000", "141553.244000", "141553.247000", "141553.249000", "141553.251000", "141553.254000", "141553.256000", "141553.258000", "141553.261000", "141553.263000", "141553.265000", "141553.268000", "141553.270000", "141553.272000", "141553.275000", "141553.277000", "141553.280000", "141553.282000", "141553.284000", "141553.287000", "141553.289000", "141553.291000", "141553.294000", "141553.296000", "141553.298000", "141553.301000", "141553.303000", "141553.305000", "141553.308000", "141613.232000", "141613.235000", "141613.237000", "141613.240000", "141613.242000", "141613.244000", "141613.247000", "141613.249000", "141613.251000", "141613.254000", "141613.256000", "141613.258000", "141613.261000", "141613.263000", "141613.266000", "141613.26800