{
    "AcquisitionMatrixPE": 64,
    "AcquisitionNumber": 1,
    "AcquisitionTime": "10:38:2.700000",
    "BandwidthPerPixelPhaseEncode": 28.935,
    "BaseResolution": 64,
    "BodyPartExamined": "BRAIN",
    "CoilString": "HC2_4_6_7;SC",
    "ConsistencyInfo": "N4_VE11E_LATEST_20181129",
    "ConversionSoftware": "dcm2niix",
    "ConversionSoftwareVersion": "v1.0.20190902",
    "DerivedVendorReportedEchoSpacing": 0.000540003,
    "DeviceSerialNumber": "166182",
    "DwellTime": 3.4e-06,
    "EchoTime": 0.032,
    "EchoTrainLength": 64,
    "EffectiveEchoSpacing": 0.000540003,
    "FlipAngle": 40,
    "ImageOrientationPatientDICOM": [
        0.994427,
        0.0427889,
        -0.096358,
        -0.0312511,
        0.992496,
        0.118215
    ],
    "ImageType": [
        "ORIGINAL",
        "PRIMARY",
        "M",
        "ND",
        "NORM",
        "MOSAIC"
    ],
    "ImagingFrequency": 123.257,
    "InPlanePhaseEncodingDirectionDICOM": "COL",
    "InstitutionAddress": "PEARSE_STREET_._City_District_IE_D2",
    "InstitutionName": "TCIN",
    "InstitutionalDepartmentName": "MRI",
    "MRAcquisitionType": "2D",
    "MagneticFieldStrength": 3,
    "Manufacturer": "Siemens",
    "ManufacturersModelName": "Prisma",
    "Modality": "MR",
    "MultibandAccelerationFactor": 4,
    "PartialFourier": 1,
    "PatientPosition": "HFS",
    "PercentPhaseFOV": 100,
    "PhaseEncodingDirection": "j-",
    "PhaseEncodingSteps": 64,
    "PhaseResolution": 1,
    "PixelBandwidth": 2300,
    "ProcedureStepDescription": "Rhodri_Head_BOLD",
    "ProtocolName": "cmrr_mbep2d_bold_Pictures_AP",
    "PulseSequenceDetails": "%SiemensSeq%_ep2d_bold",
    "ReceiveCoilActiveElements": "HC2,4,6,7;SC",
    "ReceiveCoilName": "HeadNeck_64",
    "ReconMatrixPE": 64,
    "RefLinesPE": 12,
    "RepetitionTime": 0.61,
    "SAR": 0.277354,
    "ScanOptions": "FS",
    "ScanningSequence": "EP",
    "SequenceName": "_epfid2d1_64",
    "SequenceVariant": "SK",
    "SeriesDescription": "cmrr_mbep2d_bold_Pictures_AP",
    "SeriesNumber": 10,
    "ShimSetting": [
        -3619,
        -7418,
        3750,
        1346,
        -139,
        -324,
        108,
        167
    ],
    "SliceThickness": 3,
    "SliceTiming": [
        0.2625,
        0,
        0.3275,
        0.065,
        0.3925,
        0.1325,
        0.46,
        0.1975,
        0.525,
        0.2625,
        0,
        0.3275,
        0.065,
        0.3925,
        0.1325,
        0.46,
        0.1975,
        0.525,
        0.2625,
        0,
        0.3275,
        0.065,
        0.3925,
        0.1325,
        0.46,
        0.1975,
        0.525,
        0.2625,
        0,
        0.3275,
        0.065,
        0.3925,
        0.1325,
        0.46,
        0.1975,
        0.525
    ],
    "SoftwareVersions": "syngo_MR_E11",
    "SpacingBetweenSlices": 3.3,
    "StationName": "AWP166182",
    "TaskName": "pictures",
    "TotalReadoutTime": 0.0340202,
    "TxRefAmp": 239.614,
    "dcmmeta_affine": [
        [
            -2.9832797050476074,
            -0.09375318139791489,
            -0.3322877585887909,
            104.11190795898438
        ],
        [
            -0.12836670875549316,
            2.9774885177612305,
            0.37799713015556335,
            -100.55998992919922
        ],
        [
            -0.2890741229057312,
            -0.35464420914649963,
            3.2613959312438965,
            -73.25306701660156
        ],
        [
            0.0,
            0.0,
            0.0,
            1.0
        ]
    ],
    "dcmmeta_reorient_transform": [
        [
            0.0,
            -1.0,
            0.0,
            63.0
        ],
        [
            1.0,
            0.0,
            0.0,
            0.0
        ],
        [
            0.0,
            0.0,
            1.0,
            0.0
        ],
        [
            0.0,
            0.0,
            0.0,
            1.0
        ]
    ],
    "dcmmeta_shape": [
        64,
        64,
        36,
        316
    ],
    "dcmmeta_slice_dim": 2,
    "dcmmeta_version": 0.6,
    "global": {
        "const": {
            "AcquisitionMatrix": [
                64,
                0,
                0,
                64
            ],
            "AngioFlag": "N",
            "BitsAllocated": 16,
            "BitsStored": 12,
            "BodyPartExamined": "BRAIN",
            "Columns": 384,
            "EchoNumbers": 1,
            "EchoTime": 32.0,
            "EchoTrainLength": 64,
            "FlipAngle": 40.0,
            "HighBit": 11,
            "ImageOrientationPatient": [
                0.99442658773025,
                0.04278890511935,
                -0.0963580365815,
                -0.0312510598987,
                0.99249617030247,
                0.1182147333886
            ],
            "ImagePositionPatient": [
                -560.52971176945,
                -583.95861906949,
                -106.08686336672
            ],
            "ImageType": [
                "ORIGINAL",
                "PRIMARY",
                "M",
                "ND",
                "NORM",
                "MOSAIC"
            ],
            "ImagedNucleus": "1H",
            "ImagingFrequency": 123.25703,
            "InPlanePhaseEncodingDirection": "COL",
            "MRAcquisitionType": "2D",
            "MagneticFieldStrength": 3.0,
            "Manufacturer": "SIEMENS",
            "ManufacturerModelName": "Prisma",
            "Modality": "MR",
            "NumberOfAverages": 1.0,
            "NumberOfPhaseEncodingSteps": 64,
            "PercentPhaseFieldOfView": 100.0,
            "PercentSampling": 100.0,
            "PerformedProcedureStepStartTime": "100957.476000",
            "PhotometricInterpretation": "MONOCHROME2",
            "PixelBandwidth": 2300.0,
            "PixelRepresentation": 0,
            "PixelSpacing": [
                3.0,
                3.0
            ],
            "ProtocolName": "cmrr_mbep2d_bold_Pictures_AP",
            "RepetitionTime": 610.0,
            "Rows": 384,
            "SAR": 0.27735433746174,
            "SamplesPerPixel": 1,
            "ScanOptions": "FS",
            "ScanningSequence": "EP",
            "SequenceName": "*epfid2d1_64",
            "SequenceVariant": "SK",
            "SeriesDescription": "cmrr_mbep2d_bold_Pictures_AP",
            "SeriesNumber": 10,
            "SeriesTime": "103822.112000",
            "SliceLocation": -94.398103873372,
            "SliceThickness": 3.0,
            "SmallestImagePixelValue": 0,
            "SoftwareVersions": "syngo MR E11",
            "SpacingBetweenSlices": 3.3000001048933,
            "SpecificCharacterSet": "ISO_IR 100",
            "StudyID": "1",
            "StudyTime": "100957.308000",
            "TransmitCoilName": "Body",
            "VariableFlipAngleFlag": "N",
            "WindowCenterWidthExplanation": "Algo1"
        },
        "slices": {}
    },
    "time": {
        "samples": {
            "AcquisitionNumber": [
                1,
                2,
                3,
                4,
                5,
                6,
                7,
                8,
                9,
                10,
                11,
                12,
                13,
                14,
                15,
                16,
                17,
                18,
                19,
                20,
                21,
                22,
                23,
                24,
                25,
                26,
                27,
                28,
                29,
                30,
                31,
                32,
                33,
                34,
                35,
                36,
                37,
                38,
                39,
                40,
                41,
                42,
                43,
                44,
                45,
                46,
                47,
                48,
                49,
                50,
                51,
                52,
                53,
                54,
                55,
                56,
                57,
                58,
                59,
                60,
                61,
                62,
                63,
                64,
                65,
                66,
                67,
                68,
                69,
                70,
                71,
                72,
                73,
                74,
                75,
                76,
                77,
                78,
                79,
                80,
                81,
                82,
                83,
                84,
                85,
                86,
                87,
                88,
                89,
                90,
                91,
                92,
                93,
                94,
                95,
                96,
                97,
                98,
                99,
                100,
                101,
                102,
                103,
                104,
                105,
                106,
                107,
                108,
                109,
                110,
                111,
                112,
                113,
                114,
                115,
                116,
                117,
                118,
                119,
                120,
                121,
                122,
                123,
                124,
                125,
                126,
                127,
                128,
                129,
                130,
                131,
                132,
                133,
                134,
                135,
                136,
                137,
                138,
                139,
                140,
                141,
                142,
                143,
                144,
                145,
                146,
                147,
                148,
                149,
                150,
                151,
                152,
                153,
                154,
                155,
                156,
                157,
                158,
                159,
                160,
                161,
                162,
                163,
                164,
                165,
                166,
                167,
                168,
                169,
                170,
                171,
                172,
                173,
                174,
                175,
                176,
                177,
                178,
                179,
                180,
                181,
                182,
                183,
                184,
                185,
                186,
                187,
                188,
                189,
                190,
                191,
                192,
                193,
                194,
                195,
                196,
                197,
                198,
                199,
                200,
                201,
                202,
                203,
                204,
                205,
                206,
                207,
                208,
                209,
                210,
                211,
                212,
                213,
                214,
                215,
                216,
                217,
                218,
                219,
                220,
                221,
                222,
                223,
                224,
                225,
                226,
                227,
                228,
                229,
                230,
                231,
                232,
                233,
                234,
                235,
                236,
                237,
                238,
                239,
                240,
                241,
                242,
                243,
                244,
                245,
                246,
                247,
                248,
                249,
                250,
                251,
                252,
                253,
                254,
                255,
                256,
                257,
                258,
                259,
                260,
                261,
                262,
                263,
                264,
                265,
                266,
                267,
                268,
                269,
                270,
                271,
                272,
                273,
                274,
                275,
                276,
                277,
                278,
                279,
                280,
                281,
                282,
                283,
                284,
                285,
                286,
                287,
                288,
                289,
                290,
                291,
                292,
                293,
                294,
                295,
                296,
                297,
                298,
                299,
                300,
                301,
                302,
                303,
                304,
                305,
                306,
                307,
                308,
                309,
                310,
                311,
                312,
                313,
                314,
                315,
                316
            ],
            "AcquisitionTime": [
                "103802.700000",
                "103803.310000",
                "103803.920000",
                "103804.530000",
                "103805.140000",
                "103805.750000",
                "103806.360000",
                "103806.970000",
                "103807.580000",
                "103808.190000",
                "103808.800000",
                "103809.410000",
                "103810.020000",
                "103810.630000",
                "103811.240000",
                "103811.850000",
                "103812.460000",
                "103813.070000",
                "103813.680000",
                "103814.290000",
                "103814.900000",
                "103815.510000",
                "103816.120000",
                "103816.730000",
                "103817.340000",
                "103817.950000",
                "103818.560000",
                "103819.170000",
                "103819.780000",
                "103820.390000",
                "103821.000000",
                "103821.610000",
                "103822.220000",
                "103822.830000",
                "103823.440000",
                "103824.050000",
                "103824.660000",
                "103825.270000",
                "103825.880000",
                "103826.490000",
                "103827.100000",
                "103827.710000",
                "103828.320000",
                "103828.930000",
                "103829.540000",
                "103830.150000",
                "103830.760000",
                "103831.370000",
                "103831.980000",
                "103832.590000",
                "103833.200000",
                "103833.810000",
                "103834.420000",
                "103835.030000",
                "103835.640000",
                "103836.250000",
                "103836.860000",
                "103837.470000",
                "103838.080000",
                "103838.690000",
                "103839.300000",
                "103839.910000",
                "103840.520000",
                "103841.130000",
                "103841.740000",
                "103842.350000",
                "103842.960000",
                "103843.570000",
                "103844.180000",
                "103844.790000",
                "103845.400000",
                "103846.010000",
                "103846.620000",
                "103847.230000",
                "103847.840000",
                "103848.450000",
                "103849.060000",
                "103849.670000",
                "103850.280000",
                "103850.890000",
                "103851.500000",
                "103852.110000",
                "103852.720000",
                "103853.330000",
                "103853.940000",
                "103854.550000",
                "103855.160000",
                "103855.770000",
                "103856.380000",
                "103856.990000",
                "103857.600000",
                "103858.210000",
                "103858.820000",
                "103859.430000",
                "103900.040000",
                "103900.650000",
                "103901.260000",
                "103901.870000",
                "103902.480000",
                "103903.090000",
                "103903.700000",
                "103904.310000",
                "103904.920000",
                "103905.530000",
                "103906.140000",
                "103906.750000",
                "103907.360000",
                "103907.970000",
                "103908.580000",
                "103909.190000",
                "103909.800000",
                "103910.410000",
                "103911.020000",
                "103911.630000",
                "103912.240000",
                "103912.850000",
                "103913.460000",
                "103914.070000",
                "103914.680000",
                "103915.290000",
                "103915.900000",
                "103916.510000",
                "103917.120000",
                "103917.730000",
                "103918.340000",
                "103918.950000",
                "103919.560000",
                "103920.170000",
                "103920.780000",
                "103921.390000",
                "103922.000000",
                "103922.610000",
                "103923.220000",
                "103923.830000",
                "103924.440000",
                "103925.050000",
                "103925.660000",
                "103926.270000",
                "103926.880000",
                "103927.490000",
                "103928.100000",
                "103928.710000",
                "103929.320000",
                "103929.930000",
                "103930.540000",
                "103931.150000",
                "103931.760000",
                "103932.370000",
                "103932.980000",
                "103933.590000",
                "103934.200000",
                "103934.810000",
                "103935.420000",
                "103936.030000",
                "103936.640000",
                "103937.250000",
                "103937.860000",
                "103938.470000",
                "103939.080000",
                "103939.690000",
                "103940.300000",
                "103940.910000",
                "103941.520000",
                "103942.130000",
                "103942.740000",
                "103943.350000",
                "103943.960000",
                "103944.570000",
                "103945.180000",
                "103945.790000",
                "103946.400000",
                "103947.010000",
                "103947.620000",
                "103948.230000",
                "103948.840000",
                "103949.450000",
                "103950.060000",
                "103950.670000",
                "103951.280000",
                "103951.890000",
                "103952.500000",
                "103953.110000",
                "103953.720000",
                "103954.330000",
                "103954.940000",
                "103955.550000",
                "103956.160000",
                "103956.770000",
                "103957.380000",
                "103957.990000",
                "103958.600000",
                "103959.210000",
                "103959.820000",
                "104000.430000",
                "104001.040000",
                "104001.650000",
                "104002.260000",
                "104002.870000",
                "104003.480000",
                "104004.090000",
                "104004.700000",
                "104005.310000",
                "104005.920000",
                "104006.530000",
                "104007.140000",
                "104007.750000",
                "104008.360000",
                "104008.970000",
                "104009.580000",
                "104010.190000",
                "104010.800000",
                "104011.410000",
                "104012.020000",
                "104012.630000",
                "104013.240000",
                "104013.850000",
                "104014.460000",
                "104015.070000",
                "104015.680000",
                "104016.290000",
                "104016.900000",
                "104017.510000",
                "104018.120000",
                "104018.730000",
                "104019.340000",
                "104019.950000",
                "104020.560000",
                "104021.170000",
                "104021.780000",
                "104022.390000",
                "104023.000000",
                "104023.610000",
                "104024.220000",
                "104024.830000",
                "104025.440000",
                "104026.050000",
                "104026.660000",
                "104027.270000",
                "104027.880000",
                "104028.490000",
                "104029.100000",
                "104029.710000",
                "104030.320000",
                "104030.930000",
                "104031.540000",
                "104032.150000",
                "104032.760000",
                "104033.370000",
                "104033.980000",
                "104034.590000",
                "104035.200000",
                "104035.810000",
                "104036.420000",
                "104037.030000",
                "104037.640000",
                "104038.250000",
                "104038.860000",
                "104039.470000",
                "104040.080000",
                "104040.690000",
                "104041.300000",
                "104041.910000",
                "104042.520000",
                "104043.130000",
                "104043.740000",
                "104044.350000",
                "104044.960000",
                "104045.570000",
                "104046.180000",
                "104046.790000",
                "104047.400000",
                "104048.010000",
                "104048.620000",
                "104049.230000",
                "104049.840000",
                "104050.450000",
                "104051.060000",
                "104051.670000",
                "104052.280000",
                "104052.890000",
                "104053.500000",
                "104054.110000",
                "104054.720000",
                "104055.330000",
                "104055.940000",
                "104056.550000",
                "104057.160000",
                "104057.770000",
                "104058.380000",
                "104058.990000",
                "104059.600000",
                "104100.210000",
                "104100.820000",
                "104101.430000",
                "104102.040000",
                "104102.650000",
                "104103.260000",
                "104103.870000",
                "104104.480000",
                "104105.090000",
                "104105.700000",
                "104106.310000",
                "104106.920000",
                "104107.530000",
                "104108.140000",
                "104108.750000",
                "104109.360000",
                "104109.970000",
                "104110.580000",
                "104111.190000",
                "104111.800000",
                "104112.410000",
                "104113.020000",
                "104113.630000",
                "104114.240000",
                "104114.850000"
            ],
            "ContentTime": [
                "103822.116000",
                "103822.122000",
                "103822.125000",
                "103822.127000",
                "103822.129000",
                "103822.132000",
                "103822.134000",
                "103822.136000",
                "103822.139000",
                "103822.141000",
                "103822.144000",
                "103822.146000",
                "103822.148000",
                "103822.151000",
                "103822.153000",
                "103822.156000",
                "103822.158000",
                "103822.160000",
                "103822.163000",
                "103822.165000",
                "103822.167000",
                "103822.170000",
                "103822.172000",
                "103822.174000",
                "103822.177000",
                "103822.179000",
                "103822.182000",
                "103822.184000",
                "103822.186000",
                "103822.189000",
                "103822.191000",
                "103842.111000",
                "103842.114000",
                "103842.117000",
                "103842.119000",
                "103842.122000",
                "103842.124000",
                "103842.126000",
                "103842.135000",
                "103842.138000",
                "103842.140000",
                "103842.143000",
                "103842.145000",
                "103842.148000",
                "103842.150000",
                "103842.152000",
                "103842.155000",
                "103842.157000",
                "103842.160000",
                "103842.162000",
                "103842.164000",
                "103842.167000",
                "103842.169000",
                "103842.172000",
                "103842.174000",
                "103842.177000",
                "103842.183000",
                "103842.185000",
                "103842.188000",
                "103842.190000",
                "103842.193000",
                "103842.195000",
                "103842.198000",
                "103842.200000",
                "103902.111000",
                "103902.114000",
                "103902.117000",
                "103902.119000",
                "103902.121000",
                "103902.124000",
                "103902.126000",
                "103902.128000",
                "103902.131000",
                "103902.133000",
                "103902.136000",
                "103902.138000",
                "103902.140000",
                "103902.143000",
                "103902.145000",
                "103902.148000",
                "103902.150000",
                "103902.152000",
                "103902.155000",
                "103902.157000",
                "103902.160000",
                "103902.162000",
                "103902.165000",
                "103902.167000",
                "103902.169000",
                "103902.172000",
                "103902.174000",
                "103902.177000",
                "103902.179000",
                "103902.182000",
                "103902.184000",
                "103902.187000",
                "103902.189000",
                "103922.110000",
                "103922.113000",
                "103922.115000",
                "103922.118000",
                "103922.121000",
                "103922.123000",
                "103922.125000",
                "103922.128000",
                "103922.130000",
                "103922.133000",
                "103922.135000",
                "103922.137000",
                "103922.140000",
                "103922.142000",
                "103922.145000",
                "103922.147000",
                "103922.150000",
                "103922.152000",
                "103922.154000",
                "103922.157000",
                "103922.159000",
                "103922.162000",
                "103922.164000",
                "103922.166000",
                "103922.169000",
                "103922.172000",
                "103922.175000",
                "103922.177000",
                "103922.180000",
                "103922.182000",
                "103922.184000",
                "103922.187000",
                "103942.110000",
                "103942.113000",
                "103942.115000",
                "103942.118000",
                "103942.120000",
                "103942.122000",
                "103942.125000",
                "103942.127000",
                "103942.130000",
                "103942.132000",
                "103942.134000",
                "103942.137000",
                "103942.139000",
                "103942.141000",
                "103942.144000",
                "103942.146000",
                "103942.149000",
                "103942.151000",
                "103942.154000",
                "103942.156000",
                "103942.159000",
                "103942.162000",
                "103942.165000",
                "103942.167000",
                "103942.170000",
                "103942.172000",
                "103942.174000",
                "103942.177000",
                "103942.185000",
                "103942.187000",
                "103942.190000",
                "103942.192000",
                "103942.194000",
                "104002.110000",
                "104002.113000",
                "104002.115000",
                "104002.118000",
                "104002.120000",
                "104002.122000",
                "104002.125000",
                "104002.127000",
                "104002.129000",
                "104002.132000",
                "104002.134000",
                "104002.137000",
                "104002.139000",
                "104002.141000",
                "104002.144000",
                "104002.147000",
                "104002.149000",
                "104002.152000",
