{"AcquisitionMatrixPE": 64, "AcquisitionNumber": 1, "AcquisitionTime": "10:19:10.760000", "BandwidthPerPixelPhaseEncode": 28.935, "BaseResolution": 64, "BodyPartExamined": "BRAIN", "CoilCombinationMethod": "Sum of Squares", "ConsistencyInfo": "N4_VE11E_LATEST_20181129", "ConversionSoftware": "dcm2niix", "ConversionSoftwareVersion": "v1.0.20230411", "DerivedVendorReportedEchoSpacing": 0.000540003, "DeviceSerialNumber": "166182", "DwellTime": 3.4e-06, "EchoTime": 0.032, "EchoTrainLength": 64, "EffectiveEchoSpacing": 0.000540003, "FlipAngle": 40, "HeudiconvVersion": "0.13.1", "ImageOrientationPatientDICOM": [0.994674, -0.102899, 0.00598484, 0.102263, 0.977933, -0.182181], "ImageOrientationText": "Tra>Cor(-10.5)>Sag(-0.7)", "ImageType": ["ORIGINAL", "PRIMARY", "M", "ND", "NORM", "MOSAIC"], "ImagingFrequency": 123.254602, "InPlanePhaseEncodingDirectionDICOM": "COL", "InstitutionAddress": "PEARSE STREET .,City,District,IE,D2", "InstitutionName": "TCIN", "InstitutionalDepartmentName": "MRI", "MRAcquisitionType": "2D", "MagneticFieldStrength": 3, "Manufacturer": "Siemens", "ManufacturersModelName": "Prisma", "Modality": "MR", "MultibandAccelerationFactor": 4, "NonlinearGradientCorrection": false, "PartialFourier": 1, "PatientPosition": "HFS", "PercentPhaseFOV": 100, "PercentSampling": 100, "PhaseEncodingDirection": "j-", "PhaseEncodingSteps": 64, "PhaseResolution": 1, "PixelBandwidth": 2300, "ProcedureStepDescription": "Rhodri^Head BOLD", "ProtocolName": "cmrr_mbep2d_Pictures_AP_RDS", "PulseSequenceDetails": "%SiemensSeq%\\ep2d_bold", "ReceiveCoilActiveElements": "HC2,4,6,7", "ReceiveCoilName": "HeadNeck_64", "ReconMatrixPE": 64, "RefLinesPE": 12, "RepetitionTime": 0.61, "SAR": 0.364665, "ScanOptions": "FS", "ScanningSequence": "EP", "SequenceName": "*epfid2d1_64", "SequenceVariant": "SK", "SeriesDescription": "cmrr_mbep2d_Pictures_AP_RDS", "SeriesNumber": 8, "ShimSetting": [-3643, -7539, 3878, 775, -167, 771, 90, -260], "SliceThickness": 3, "SliceTiming": [0.2625, 0, 0.3275, 0.065, 0.395, 0.1325, 0.46, 0.1975, 0.525, 0.2625, 0, 0.3275, 0.065, 0.395, 0.1325, 0.46, 0.1975, 0.525, 0.2625, 0, 0.3275, 0.065, 0.395, 0.1325, 0.46, 0.1975, 0.525, 0.2625, 0, 0.3275, 0.065, 0.395, 0.1325, 0.46, 0.1975, 0.525], "SoftwareVersions": "syngo MR E11", "SpacingBetweenSlices": 3.3, "StationName": "AWP166182", "TaskName": "pictures", "TotalReadoutTime": 0.0340202, "TxRefAmp": 294.929, "dcmmeta_affine": [[-2.9840214252471924, 0.30678966641426086, -0.042548373341560364, 87.67176055908203], [0.30869677662849426, 2.93379807472229, -0.6000146269798279, -95.65966033935547], [0.01795453391969204, 0.546542763710022, 3.2447144985198975, -114.53125], [0.0, 0.0, 0.0, 1.0]], "dcmmeta_reorient_transform": [[0.0, -1.0, 0.0, 63.0], [1.0, 0.0, 0.0, 0.0], [0.0, 0.0, 1.0, 0.0], [0.0, 0.0, 0.0, 1.0]], "dcmmeta_shape": [64, 64, 36, 510], "dcmmeta_slice_dim": 2, "dcmmeta_version": 0.6, "global": {"const": {"AcquisitionMatrix": [64, 0, 0, 64], "AngioFlag": "N", "BitsAllocated": 16, "BitsStored": 12, "BodyPartExamined": "BRAIN", "Columns": 384, "EchoNumbers": 1, "EchoTime": 32.0, "EchoTrainLength": 64, "FlipAngle": 40.0, "HighBit": 11, "ImageOrientationPatient": [0.99467381185541, -0.1028989292709, 0.0059848445211, 0.10226322437366, 0.97793269047039, -0.1821809151641], "ImagePositionPatient": [-633.52928440832, -509.18582256481, 4.4750588217381], "ImageType": ["ORIGINAL", "PRIMARY", "M", "ND", "NORM", "MOSAIC"], "ImagedNucleus": "1H", "ImagingFrequency": 123.254602, "InPlanePhaseEncodingDirection": "COL", "MRAcquisitionType": "2D", "MagneticFieldStrength": 3.0, "Manufacturer": "SIEMENS", "ManufacturerModelName": "Prisma", "Modality": "MR", "NumberOfAverages": 1.0, "NumberOfPhaseEncodingSteps": 64, "PercentPhaseFieldOfView": 100.0, "PercentSampling": 100.0, "PerformedProcedureStepStartTime": "100527.519000", "PhotometricInterpretation": "MONOCHROME2", "PixelBandwidth": 2300.0, "PixelRepresentation": 0, "PixelSpacing": [3.0, 3.0], "ProtocolName": "cmrr_mbep2d_Pictures_AP_RDS", "RepetitionTime": 610.0, "Rows": 384, "SAR": 0.36466466347887, "SamplesPerPixel": 1, "ScanOptions": "FS", "ScanningSequence": "EP", "SequenceName": "*epfid2d1_64", "SequenceVariant": "SK", "SeriesDescription": "cmrr_mbep2d_Pictures_AP_RDS", "SeriesNumber": 8, "SeriesTime": "101923.849000", "SliceLocation": -96.349785985916, "SliceThickness": 3.0, "SmallestImagePixelValue": 0, "SoftwareVersions": "syngo MR E11", "SpacingBetweenSlices": 3.299999981798, "SpecificCharacterSet": "ISO_IR 100", "StudyID": "1", "StudyTime": "100527.375000", "TransmitCoilName": "Body", "VariableFlipAngleFlag": "N", "WindowCenterWidthExplanation": "Algo1"}, "slices": {}}, "time": {"samples": {"AcquisitionNumber": [1, 2, 3, 4, 5, 6, 7, 8, 9, 10, 11, 12, 13, 14, 15, 16, 17, 18, 19, 20, 21, 22, 23, 24, 25, 26, 27, 28, 29, 30, 31, 32, 33, 34, 35, 36, 37, 38, 39, 40, 41, 42, 43, 44, 45, 46, 47, 48, 49, 50, 51, 52, 53, 54, 55, 56, 57, 58, 59, 60, 61, 62, 63, 64, 65, 66, 67, 68, 69, 70, 71, 72, 73, 74, 75, 76, 77, 78, 79, 80, 81, 82, 83, 84, 85, 86, 87, 88, 89, 90, 91, 92, 93, 94, 95, 96, 97, 98, 99, 100, 101, 102, 103, 104, 105, 106, 107, 108, 109, 110, 111, 112, 113, 114, 115, 116, 117, 118, 119, 120, 121, 122, 123, 124, 125, 126, 127, 128, 129, 130, 131, 132, 133, 134, 135, 136, 137, 138, 139, 140, 141, 142, 143, 144, 145, 146, 147, 148, 149, 150, 151, 152, 153, 154, 155, 156, 157, 158, 159, 160, 161, 162, 163, 164, 165, 166, 167, 168, 169, 170, 171, 172, 173, 174, 175, 176, 177, 178, 179, 180, 181, 182, 183, 184, 185, 186, 187, 188, 189, 190, 191, 192, 193, 194, 195, 196, 197, 198, 199, 200, 201, 202, 203, 204, 205, 206, 207, 208, 209, 210, 211, 212, 213, 214, 215, 216, 217, 218, 219, 220, 221, 222, 223, 224, 225, 226, 227, 228, 229, 230, 231, 232, 233, 234, 235, 236, 237, 238, 239, 240, 241, 242, 243, 244, 245, 246, 247, 248, 249, 250, 251, 252, 253, 254, 255, 256, 257, 258, 259, 260, 261, 262, 263, 264, 265, 266, 267, 268, 269, 270, 271, 272, 273, 274, 275, 276, 277, 278, 279, 280, 281, 282, 283, 284, 285, 286, 287, 288, 289, 290, 291, 292, 293, 294, 295, 296, 297, 298, 299, 300, 301, 302, 303, 304, 305, 306, 307, 308, 309, 310, 311, 312, 313, 314, 315, 316, 317, 318, 319, 320, 321, 322, 323, 324, 325, 326, 327, 328, 329, 330, 331, 332, 333, 334, 335, 336, 337, 338, 339, 340, 341, 342, 343, 344, 345, 346, 347, 348, 349, 350, 351, 352, 353, 354, 355, 356, 357, 358, 359, 360, 361, 362, 363, 364, 365, 366, 367, 368, 369, 370, 371, 372, 373, 374, 375, 376, 377, 378, 379, 380, 381, 382, 383, 384, 385, 386, 387, 388, 389, 390, 391, 392, 393, 394, 395, 396, 397, 398, 399, 400, 401, 402, 403, 404, 405, 406, 407, 408, 409, 410, 411, 412, 413, 414, 415, 416, 417, 418, 419, 420, 421, 422, 423, 424, 425, 426, 427, 428, 429, 430, 431, 432, 433, 434, 435, 436, 437, 438, 439, 440, 441, 442, 443, 444, 445, 446, 447, 448, 449, 450, 451, 452, 453, 454, 455, 456, 457, 458, 459, 460, 461, 462, 463, 464, 465, 466, 467, 468, 469, 470, 471, 472, 473, 474, 475, 476, 477, 478, 479, 480, 481, 482, 483, 484, 485, 486, 487, 488, 489, 490, 491, 492, 493, 494, 495, 496, 497, 498, 499, 500, 501, 502, 503, 504, 505, 506, 507, 508, 509, 510], "AcquisitionTime": ["101910.760000", "101911.370000", "101911.980000", "101912.590000", "101913.200000", "101913.810000", "101914.420000", "101915.030000", "101915.640000", "101916.250000", "101916.860000", "101917.470000", "101918.080000", "101918.690000", "101919.300000", "101919.910000", "101920.520000", "101921.130000", "101921.740000", "101922.350000", "101922.960000", "101923.570000", "101924.180000", "101924.790000", "101925.400000", "101926.010000", "101926.620000", "101927.230000", "101927.840000", "101928.450000", "101929.060000", "101929.670000", "101930.280000", "101930.890000", "101931.500000", "101932.110000", "101932.720000", "101933.330000", "101933.940000", "101934.550000", "101935.160000", "101935.770000", "101936.380000", "101936.990000", "101937.600000", "101938.210000", "101938.820000", "101939.430000", "101940.040000", "101940.650000", "101941.260000", "101941.870000", "101942.480000", "101943.090000", "101943.700000", "101944.310000", "101944.920000", "101945.530000", "101946.140000", "101946.750000", "101947.360000", "101947.970000", "101948.580000", "101949.190000", "101949.800000", "101950.410000", "101951.020000", "101951.630000", "101952.240000", "101952.850000", "101953.460000", "101954.070000", "101954.680000", "101955.290000", "101955.900000", "101956.510000", "101957.120000", "101957.730000", "101958.340000", "101958.950000", "101959.560000", "102000.170000", "102000.780000", "102001.390000", "102002.000000", "102002.610000", "102003.220000", "102003.830000", "102004.440000", "102005.050000", "102005.660000", "102006.270000", "102006.880000", "102007.490000", "102008.100000", "102008.710000", "102009.320000", "102009.930000", "102010.540000", "102011.150000", "102011.760000", "102012.370000", "102012.980000", "102013.590000", "102014.200000", "102014.810000", "102015.420000", "102016.030000", "102016.640000", "102017.250000", "102017.860000", "102018.470000", "102019.080000", "102019.690000", "102020.300000", "102020.910000", "102021.520000", "102022.130000", "102022.740000", "102023.350000", "102023.960000", "102024.570000", "102025.180000", "102025.790000", "102026.400000", "102027.010000", "102027.620000", "102028.230000", "102028.840000", "102029.450000", "102030.060000", "102030.670000", "102031.280000", "102031.890000", "102032.500000", "102033.110000", "102033.720000", "102034.330000", "102034.940000", "102035.550000", "102036.160000", "102036.770000", "102037.380000", "102037.990000", "102038.600000", "102039.210000", "102039.820000", "102040.430000", "102041.040000", "102041.650000", "102042.260000", "102042.870000", "102043.480000", "102044.090000", "102044.700000", "102045.310000", "102045.920000", "102046.530000", "102047.140000", "102047.750000", "102048.360000", "102048.970000", "102049.580000", "102050.190000", "102050.800000", "102051.410000", "102052.020000", "102052.630000", "102053.240000", "102053.850000", "102054.460000", "102055.070000", "102055.680000", "102056.290000", "102056.900000", "102057.510000", "102058.120000", "102058.730000", "102059.340000", "102059.950000", "102100.560000", "102101.170000", "102101.780000", "102102.390000", "102103.000000", "102103.610000", "102104.220000", "102104.830000", "102105.440000", "102106.050000", "102106.660000", "102107.270000", "102107.880000", "102108.490000", "102109.100000", "102109.710000", "102110.320000", "102110.930000", "102111.540000", "102112.150000", "102112.760000", "102113.370000", "102113.980000", "102114.590000", "102115.200000", "102115.810000", "102116.420000", "102117.030000", "102117.640000", "102118.250000", "102118.860000", "102119.470000", "102120.080000", "102120.690000", "102121.300000", "102121.910000", "102122.520000", "102123.130000", "102123.740000", "102124.350000", "102124.960000", "102125.570000", "102126.180000", "102126.790000", "102127.400000", "102128.010000", "102128.620000", "102129.230000", "102129.840000", "102130.450000", "102131.060000", "102131.670000", "102132.280000", "102132.890000", "102133.500000", "102134.110000", "102134.720000", "102135.330000", "102135.940000", "102136.550000", "102137.160000", "102137.770000", "102138.380000", "102138.990000", "102139.600000", "102140.210000", "102140.820000", "102141.430000", "102142.040000", "102142.650000", "102143.260000", "102143.870000", "102144.480000", "102145.090000", "102145.700000", "102146.310000", "102146.920000", "102147.530000", "102148.140000", "102148.750000", "102149.360000", "102149.970000", "102150.580000", "102151.190000", "102151.800000", "102152.410000", "102153.020000", "102153.630000", "102154.240000", "102154.850000", "102155.460000", "102156.070000", "102156.680000", "102157.290000", "102157.900000", "102158.510000", "102159.120000", "102159.730000", "102200.340000", "102200.950000", "102201.560000", "102202.170000", "102202.780000", "102203.390000", "102204.000000", "102204.610000", "102205.220000", "102205.830000", "102206.440000", "102207.050000", "102207.660000", "102208.270000", "102208.880000", "102209.490000", "102210.100000", "102210.710000", "102211.320000", "102211.930000", "102212.540000", "102213.150000", "102213.760000", "102214.370000", "102214.980000", "102215.590000", "102216.200000", "102216.810000", "102217.420000", "102218.030000", "102218.640000", "102219.250000", "102219.860000", "102220.470000", "102221.080000", "102221.690000", "102222.300000", "102222.910000", "102223.520000", "102224.130000", "102224.740000", "102225.350000", "102225.960000", "102226.570000", "102227.180000", "102227.790000", "102228.400000", "102229.010000", "102229.620000", "102230.230000", "102230.840000", "102231.450000", "102232.060000", "102232.670000", "102233.280000", "102233.890000", "102234.500000", "102235.110000", "102235.720000", "102236.330000", "102236.940000", "102237.550000", "102238.160000", "102238.770000", "102239.380000", "102239.990000", "102240.600000", "102241.210000", "102241.820000", "102242.430000", "102243.040000", "102243.650000", "102244.260000", "102244.870000", "102245.480000", "102246.090000", "102246.700000", "102247.310000", "102247.920000", "102248.530000", "102249.140000", "102249.750000", "102250.360000", "102250.970000", "102251.580000", "102252.190000", "102252.800000", "102253.410000", "102254.020000", "102254.630000", "102255.240000", "102255.850000", "102256.460000", "102257.070000", "102257.680000", "102258.290000", "102258.900000", "102259.510000", "102300.120000", "102300.730000", "102301.340000", "102301.950000", "102302.560000", "102303.170000", "102303.780000", "102304.390000", "102305.000000", "102305.610000", "102306.220000", "102306.830000", "102307.440000", "102308.050000", "102308.660000", "102309.270000", "102309.880000", "102310.490000", "102311.100000", "102311.710000", "102312.320000", "102312.930000", "102313.540000", "102314.150000", "102314.760000", "102315.370000", "102315.980000", "102316.590000", "102317.200000", "102317.810000", "102318.420000", "102319.030000", "102319.640000", "102320.250000", "102320.860000", "102321.470000", "102322.080000", "102322.690000", "102323.300000", "102323.910000", "102324.520000", "102325.130000", "102325.740000", "102326.350000", "102326.960000", "102327.570000", "102328.180000", "102328.790000", "102329.400000", "102330.010000", "102330.620000", "102331.230000", "102331.840000", "102332.450000", "102333.060000", "102333.670000", "102334.280000", "102334.890000", "102335.500000", "102336.110000", "102336.720000", "102337.330000", "102337.940000", "102338.550000", "102339.160000", "102339.770000", "102340.380000", "102340.990000", "102341.600000", "102342.210000", "102342.820000", "102343.430000", "102344.040000", "102344.650000", "102345.260000", "102345.870000", "102346.480000", "102347.090000", "102347.700000", "102348.310000", "102348.920000", "102349.530000", "102350.140000", "102350.750000", "102351.360000", "102351.970000", "102352.580000", "102353.190000", "102353.800000", "102354.410000", "102355.020000", "102355.630000", "102356.240000", "102356.850000", "102357.460000", "102358.070000", "102358.680000", "102359.290000", "102359.900000", "102400.510000", "102401.120000", "102401.730000", "102402.340000", "102402.950000", "102403.560000", "102404.170000", "102404.780000", "102405.390000", "102406.000000", "102406.610000", "102407.220000", "102407.830000", "102408.440000", "102409.050000", "102409.660000", "102410.270000", "102410.880000", "102411.490000", "102412.100000", "102412.710000", "102413.320000", "102413.930000", "102414.540000", "102415.150000", "102415.760000", "102416.370000", "102416.980000", "102417.590000", "102418.200000", "102418.810000", "102419.420000", "102420.030000", "102420.640000", "102421.250000"], "ContentTime": ["101923.853000", "101923.856000", "101923.858000", "101923.861000", "101923.870000", "101923.872000", "101923.875000", "101923.877000", "101923.879000", "101923.882000", "101923.884000", "101923.887000", "101923.895000", "101923.897000", "101923.899000", "101923.902000", "101923.904000", "101923.907000", "101923.909000", "101923.912000", "101923.918000", "101943.848000", "101943.851000", "101943.861000", "101943.863000", "101943.866000", "101943.868000", "101943.871000", "101943.873000", "101943.875000", "101943.878000", "101943.880000", "101943.882000", "101943.885000", "101943.887000", "101943.889000", "101943.892000", "101943.894000", "101943.896000", "101943.899000", "101943.901000", "101943.903000", "101943.906000", "101943.908000", "101943.910000", "101943.917000", "101943.919000", "101943.921000", "101943.924000", "101943.926000", "101943.928000", "101943.931000", "101943.933000", "101943.935000", "102003.848000", "102003.851000", "102003.853000", "102003.856000", "102003.858000", "102003.860000", "102003.863000", "102003.865000", "102003.867000", "102003.870000", "102003.872000", "102003.874000", "102003.877000", "102003.879000", "102003.881000", "102003.884000", "102003.886000", "102003.888000", "102003.891000", "102003.893000", "102003.895000", "102003.898000", "102003.900000", "102003.902000", "102003.905000", "102003.907000", "102003.909000", "102003.912000", "102003.914000", "102003.916000", "102003.919000", "102003.921000", "102023.849000", "102023.852000", "102023.854000", "102023.857000", "102023.859000", "102023.862000", "102023.864000", "102023.866000", "102023.887000", "102023.889000", "102023.892000", "102023.894000", "102023.896000", "102023.899000", "102023.901000", "102023.904000", "102023.907000", "102023.910000", "102023.913000", "102023.915000", "102023.917000", "102023.920000", "102023.922000", "102023.925000", "102023.927000", "102023.929000", "102023.932000", "102023.934000", "102023.937000", "102023.939000", "102023.942000", "102023.944000", "102023.946000", "102043.849000", "102043.852000", "102043.854000", "102043.857000", "102043.859000", "102043.862000", "102043.864000", "102043.866000", "102043.869000", "102043.871000", "102043.874000", "102043.876000", "102043.878000", "102043.881000", "102043.883000", "102043.886000", "102043.888000", "102043.890000", "102043.893000", "102043.895000", "102043.898000", "102043.900000", "102043.902000", "102043.905000", "102043.907000", "102043.909000", "102043.912000", "102043.914000", "102043.917000", "102043.919000", "102043.921000", "102043.924000", "102043.926000", "102103.849000", "102103.852000", "102103.854000", "102103.857000", "102103.859000", "102103.861000", "102103.864000", "102103.866000", "102103.868000", "102103.871000", "102103.873000", "102103.875000", "102103.878000", "102103.880000", "102103.882000", "102103.885000", "102103.887000", "102103.889000", "102103.892000", "102103.894000", "102103.897000", "102103.899000", "102103.901000", "102103.904000", "102103.906000", "102103.909000", "102103.912000", "102103.914000", "102103.917000", "102103.919000", "102103.921000", "102103.924000", "102103.926000", "102123.849000", "102123.859000", "102123.862000", "102123.864000", "102123.867000", "102123.869000", "102123.871000", "102123.874000", "102123.876000", "102123.878000", "102123.881000", "102123.883000", "102123.886000", "102123.888000", "102123.890000", "102123.893000", "102123.895000", "102123.897000", "102123.900000", "102123.902000", "102123.905000", "102123.907000", "102123.910000", "102123.912000", "102123.915000", "102123.917000", "102123.919000", "102123.922000", "102123.924000", "102123.927000", "102123.929000", "102123.931000", "102143.848000", "102143.851000", "102143.853000", "102143.856000", "102143.858000", "102143.860000", "102143.863000", "102143.865000", "102143.867000", "102143.870000", "102143.873000", "102143.875000", "102143.877000", "102143.880000", "102143.882000", "102143.885000", "102143.887000", "102143.890000", "102143.892000", "102143.894000", "102143.897000", "102143.899000", "102143.901000", "102143.904000", "102143.906000", "102143.909000", "102143.911000", "102143.913000", "102143.916000", "102143.918000", "102143.921000", "102143.923000", "102143.925000", "102203.849000", "102203.853000", "102203.856000", "102203.858000", "102203.861000", "102203.864000", "102203.866000", "102203.869000", "102203.871000", "102203.874000", "102203.876000", "102203.879000", "102203.881000", "102203.883000", "102203.886000", "102203.888000", "102203.890000", "102203.893000", "102203.895000", "102203.898000", "102203.900000", "102203.903000", "102203.905000", "102203.908000", "102203.910000", "102203.912000", "102203.915000", "102203.917000", "102203.920000", "102203.922000", "102203.924000", "102203.927000", "102203.929000", "102223.848000", "102223.851000", "102223.853000", "102223.856000", "102223.858000", "102223.860000", "102223.863000", "102223.865000", "102223.867000", "102223.870000", "102223.872000", "102223.874000", "102223.877000", "102223.879000", "102223.881000", "102223.884000", "102223.886000", "102223.889000", "102223.891000", "102223.893000", "102223.896000", "102223.898000", "102223.901000", "102223.903000", "102223.905000", "102223.908000", "102223.910000", "102223.912000", "102223.915000", "102223.917000", "102223.919000", "102223.922000", "102223.924000", "102243.849000", "102243.852000", "102243.854000", "102243.857000", "102243.859000", "102243.862000", "102243.864000", "102243.866000", "102243.869000", "102243.871000", "102243.874000", "102243.876000", "102243.878000", "102243.881000", "102243.883000", "102243.885000", "102243.888000", "102243.890000", "102243.893000", "102243.895000", "102243.897000", "102243.900000", "102243.902000", "102243.904000", "102243.907000", "102243.909000", "102243.912000", "102243.914000", "102243.916000", "102243.919000", "102243.921000", "102243.923000", "102243.926000", "102303.849000", "102303.852000", "102303.854000", "102303.857000", "102303.859000", "102303.862000", "102303.864000", "102303.866000", "102303.869000", "102303.871000", "102303.873000", "102303.876000", "102303.878000", "102303.881000", "102303.883000", "102303.886000", "102303.888000", "102303.891000", "102303.893000", "102303.895000", "102303.898000", "102303.900000", "102303.902000", "102303.905000", "102303.907000", "102303.909000", "102303.912000", "102303.914000", "102303.917000", "102303.926000", "102303.929000", "102303.931000", "102323.849000", "102323.852000", "102323.855000", "102323.857000", "102323.860000", "102323.862000", "102323.865000", "102323.867000", "102323.869000", "102323.872000", "102323.874000", "102323.876000", "102323.879000", "102323.881000", "102323.884000", "102323.886000", "102323.888000", "102323.891000", "102323.893000", "102323.895000", "102323.898000", "102323.900000", "102323.903000", "102323.905000", "102323.907000", "102323.910000", "102323.913000", "102323.919000", "102323.921000", "102323.924000", "102323.926000", "102323.929000", "102323.931000", "102343.849000", "102343.852000", "102343.858000", "102343.861000", "102343.863000", "102343.866000", "102343.868000", "102343.870000", "102343.873000", "102343.875000", "102343.877000", "102343.880000", "102343.882000", "102343.885000", "102343.887000", "102343.889000", "102343.892000", "102343.894000", "102343.896000", "102343.899000", "102343.901000", "102343.904000", "102343.906000", "102343.908000", "102343.911000", "102343.913000", "102343.915000", "102343.918000", "102343.920000", "102343.922000", "102343.925000", "102343.927000", "102343.930000", "102403.848000", "102403.851000", "102403.853000", "102403.856000", "102403.858000", "102403.861000", "102403.863000", "102403.865000", "102403.868000", "102403.870000", "102403.873000", "102403.875000", "102403.877000", "102403.880000", "102403.882000", "102403.885000", "102403.887000", "102403.889000", "102403.892000", "102403.894000", "102403.896000", "102403.899000", "102403.901000", "102403.903000", "102403.906000", "102403.908000", "102403.910000", "102403.913000", "102403.915000", "102403.918000", "102403.920000", "102403.922000", "102403.925000", "102421.931000", "102421.934000", "102421.936000", "102421.939000", "102421.941000", "102421.943000", "102421.946000", "102421.948000", "102421.950000", "102421.953000", "102421.955000", "102421.958000", "102421.960000", "102421.962000", "102421.965000", "102421.967000", "102421.970000", "102421.972000", "102421.974000", "102421.977000", "102421.979000", "102421.981000", "102421.984000", "102421.986000", "102421.988000", "102421.991000", "102421.993000", "102421.996000", "102421.998000", "102422.001000"], "InstanceCreationTime": ["101923.853000", "101923.856000", "101923.858000", "101923.861000", "101923.870000", "101923.872000", "101923.875000", "101923.877000", "101923.879000", "101923.882000", "101923.884000", "101923.887000", "101923.895000", "101923.897000", "101923.899000", "101923.902000", "101923.904000", "101923.907000", "101923.909000", "101923.912000", "101923.918000", "101943.848000", "101943.851000", "101943.861000", "101943.863000", "101943.866000", "101943.868000", "101943.871000", "101943.873000", "101943.875000", "101943.878000", "101943.880000", "101943.882000", "101943.885000", "101943.887000", "101943.889000", "101943.892000", "101943.894000", "101943.896000", "101943.899000", "101943.901000", "101943.903000", "101943.906000", "101943.908000", "101943.910000", "101943.917000", "101943.919000", "101943.921000", "101943.924000", "101943.926000", "101943.928000", "101943.931000", "101943.933000", "101943.935000", "102003.848000", "102003.851000", "102003.853000", "102003.856000", "102003.858000", "102003.860000", "102003.863000", "102003.865000", "102003.867000", "102003.870000", "102003.872000", "102003.874000", "102003.877000", "102003.879000", "102003.881000", "102003.884000", "102003.886000", "102003.888000", "102003.891000", "102003.893000", "102003.895000", "102003.898000", "102003.900000", "102003.902000", "102003.905000", "102003.907000", "102003.909000", "102003.912000", "102003.914000", "102003.916000", "102003.919000", "102003.921000", "102023.849000", "102023.852000", "102023.854000", "102023.857000", "102023.859000", "102023.862000", "102023.864000", "102023.866000", "102023.887000", "102023.889000", "102023.892000", "102023.894000", "102023.896000", "102023.899000", "102023.901000", "102023.904000", "102023.907000", "102023.910000", "102023.913000", "102023.915000", "102023.917000", "102023.920000", "102023.922000", "102023.925000", "102023.927000", "102023.929000", "102023.932000", "102023.934000", "102023.937000", "102023.939000", "102023.942000", "102023.944000", "102023.946000", "102043.849000", "102043.852000", "102043.854000", "102043.857000", "102043.859000", "102043.862000", "102043.864000", "102043.866000", "102043.869000", "102043.871000", "102043.874000", "102043.876000", "102043.878000", "102043.881000", "102043.883000", "102043.886000", "102043.888000", "102043.890000", "102043.893000", "102043.895000", "102043.898000", "102043.900000", "102043.902000", "102043.905000", "102043.907000", "102043.909000", "102043.912000", "102043.914000", "102043.917000", "102043.919000", "102043.921000", "102043.924000", "102043.926000", "102103.849000", "102103.852000", "102103.854000", "102103.857000", "102103.859000", "102103.861000", "102103.864000", "102103.866000", "102103.868000", "102103.871000", "102103.873000", "102103.875000", "102103.878000", "102103.880000", "102103.882000", "102103.885000", "102103.887000", "102103.889000", "102103.892000", "102103.894000", "102103.897000", "102103.899000", "102103.901000", "102103.904000", "102103.906000", "102103.909000", "102103.912000", "102103.914000", "102103.917000", "102103.919000", "102103.921000", "102103.924000", "102103.926000", "102123.849000", "102123.859000", "102123.862000", "102123.864000", "102123.867000", "102123.869000", "102123.871000", "102123.874000", "102123.876000", "102123.878000", "102123.881000", "102123.883000", "102123.886000", "102123.888000", "102123.890000", "102123.893000", "102123.895000", "102123.897000", "102123.900000", "102123.902000", "102123.905000", "102123.907000", "102123.910000", "102123.912000", "102123.915000", "102123.917000", "102123.919000", "102123.922000", "102123.924000", "102123.927000", "102123.929000", "102123.931000", "102143.848000", "102143.851000", "102143.853000", "102143.856000", "102143.858000", "102143.860000", "102143.863000", "102143.865000", "102143.867000", "102143.870000", "102143.873000", "102143.875000", "102143.877000", "102143.880000", "102143.882000", "102143.885000", "102143.887000", "102143.890000", "102143.892000", "102143.894000", "102143.897000", "102143.899000", "102143.901000", "102143.904000", "102143.906000", "102143.909000", "102143.911000", "102143.913000", "102143.916000", "102143.918000", "102143.921000", "102143.923000", "102143.925000", "102203.849000", "102203.853000", "102203.856000", "102203.858000", "102203.861000", "102203.864000", "102203.866000", "102203.869000", "102203.871000", "102203.874000", "102203.876000", "102203.879000", "102203.881000", "102203.883000", "102203.886000", "102203.888000", "102203.890000", "102203.893000", "102203.895000", "102203.898000", "102203.900000", "102203.903000", "102203.905000", "102203.908000", "102203.910000", "102203.912000", "102203.915000", "102203.917000", "102203.920000", "102203.922000", "102203.924000", "102203.927000", "102203.929000", "102223.848000", "102223.851000", "102223.853000", "102223.856000", "102223.858000", "102223.860000", "102223.863000", "102223.865000", "102223.867000", "102223.870000", "102223.872000", "102223.874000", "102223.877000", "102223.879000", "102223.881000", "102223.884000", "102223.886000", "102223.889000", "102223.891000", "102223.893000", "102223.896000", "102223.898000", "102223.901000", "102223.903000", "102223.905000", "102223.908000", "102223.910000", "102223.912000", "102223.915000", "102223.917000", "102223.919000", "102223.922000", "102223.924000", "102243.849000", "102243.852000", "102243.854000", "102243.857000", "102243.859000",