{
    "AcquisitionMatrixPE": 64,
    "AcquisitionNumber": 1,
    "AcquisitionTime": "10:36:49.727500",
    "BandwidthPerPixelPhaseEncode": 28.935,
    "BaseResolution": 64,
    "BodyPartExamined": "BRAIN",
    "CoilString": "HC2_4_6_7",
    "ConsistencyInfo": "N4_VE11E_LATEST_20181129",
    "ConversionSoftware": "dcm2niix",
    "ConversionSoftwareVersion": "v1.0.20190902",
    "DerivedVendorReportedEchoSpacing": 0.000540003,
    "DeviceSerialNumber": "166182",
    "DwellTime": 3.4e-06,
    "EchoTime": 0.032,
    "EchoTrainLength": 64,
    "EffectiveEchoSpacing": 0.000540003,
    "FlipAngle": 40,
    "ImageOrientationPatientDICOM": [
        0.998217,
        -0.0585631,
        -0.0115334,
        0.0575569,
        0.995607,
        -0.0738437
    ],
    "ImageType": [
        "ORIGINAL",
        "PRIMARY",
        "M",
        "ND",
        "NORM",
        "MOSAIC"
    ],
    "ImagingFrequency": 123.256,
    "InPlanePhaseEncodingDirectionDICOM": "COL",
    "InstitutionAddress": "PEARSE_STREET_._City_District_IE_D2",
    "InstitutionName": "TCIN",
    "InstitutionalDepartmentName": "MRI",
    "MRAcquisitionType": "2D",
    "MagneticFieldStrength": 3,
    "Manufacturer": "Siemens",
    "ManufacturersModelName": "Prisma",
    "Modality": "MR",
    "MultibandAccelerationFactor": 4,
    "PartialFourier": 1,
    "PatientPosition": "HFS",
    "PercentPhaseFOV": 100,
    "PhaseEncodingDirection": "j-",
    "PhaseEncodingSteps": 64,
    "PhaseResolution": 1,
    "PixelBandwidth": 2300,
    "ProcedureStepDescription": "Rhodri_Head_BOLD",
    "ProtocolName": "cmrr_mbep2d_Pictures_AP_RDS",
    "PulseSequenceDetails": "%SiemensSeq%_ep2d_bold",
    "ReceiveCoilActiveElements": "HC2,4,6,7",
    "ReceiveCoilName": "HeadNeck_64",
    "ReconMatrixPE": 64,
    "RefLinesPE": 12,
    "RepetitionTime": 0.61,
    "SAR": 0.293,
    "ScanOptions": "FS",
    "ScanningSequence": "EP",
    "SequenceName": "_epfid2d1_64",
    "SequenceVariant": "SK",
    "SeriesDescription": "cmrr_mbep2d_Pictures_AP_RDS",
    "SeriesNumber": 13,
    "ShimSetting": [
        -3575,
        -7467,
        3834,
        656,
        35,
        510,
        71,
        -113
    ],
    "SliceThickness": 3,
    "SliceTiming": [
        0.2625,
        0,
        0.3275,
        0.065,
        0.3925,
        0.13,
        0.46,
        0.1975,
        0.525,
        0.2625,
        0,
        0.3275,
        0.065,
        0.3925,
        0.13,
        0.46,
        0.1975,
        0.525,
        0.2625,
        0,
        0.3275,
        0.065,
        0.3925,
        0.13,
        0.46,
        0.1975,
        0.525,
        0.2625,
        0,
        0.3275,
        0.065,
        0.3925,
        0.13,
        0.46,
        0.1975,
        0.525
    ],
    "SoftwareVersions": "syngo_MR_E11",
    "SpacingBetweenSlices": 3.3,
    "StationName": "AWP166182",
    "TaskName": "pictures",
    "TotalReadoutTime": 0.0340202,
    "TxRefAmp": 269.702,
    "dcmmeta_affine": [
        [
            -2.9946513175964355,
            0.17267055809497833,
            -0.05216402933001518,
            93.78470611572266
        ],
        [
            0.1756894290447235,
            2.9868226051330566,
            -0.24105924367904663,
            -100.91199493408203
        ],
        [
            -0.034600261598825455,
            0.2215312272310257,
            3.2907702922821045,
            -109.06709289550781
        ],
        [
            0.0,
            0.0,
            0.0,
            1.0
        ]
    ],
    "dcmmeta_reorient_transform": [
        [
            0.0,
            -1.0,
            0.0,
            63.0
        ],
        [
            1.0,
            0.0,
            0.0,
            0.0
        ],
        [
            0.0,
            0.0,
            1.0,
            0.0
        ],
        [
            0.0,
            0.0,
            0.0,
            1.0
        ]
    ],
    "dcmmeta_shape": [
        64,
        64,
        36,
        510
    ],
    "dcmmeta_slice_dim": 2,
    "dcmmeta_version": 0.6,
    "global": {
        "const": {
            "AcquisitionMatrix": [
                64,
                0,
                0,
                64
            ],
            "AngioFlag": "N",
            "BitsAllocated": 16,
            "BitsStored": 12,
            "BodyPartExamined": "BRAIN",
            "Columns": 384,
            "EchoNumbers": 1,
            "EchoTime": 32.0,
            "EchoTrainLength": 64,
            "FlipAngle": 40.0,
            "HighBit": 11,
            "ImageOrientationPatient": [
                0.99821707993261,
                -0.0585631415784,
                -0.0115334201038,
                0.05755685184526,
                0.99560750835464,
                -0.073843741194
            ],
            "ImagePositionPatient": [
                -611.43443901237,
                -537.03912400967,
                -54.129586452365
            ],
            "ImageType": [
                "ORIGINAL",
                "PRIMARY",
                "M",
                "ND",
                "NORM",
                "MOSAIC"
            ],
            "ImagedNucleus": "1H",
            "ImagingFrequency": 123.255638,
            "InPlanePhaseEncodingDirection": "COL",
            "MRAcquisitionType": "2D",
            "MagneticFieldStrength": 3.0,
            "Manufacturer": "SIEMENS",
            "ManufacturerModelName": "Prisma",
            "Modality": "MR",
            "NumberOfAverages": 1.0,
            "NumberOfPhaseEncodingSteps": 64,
            "PercentPhaseFieldOfView": 100.0,
            "PercentSampling": 100.0,
            "PerformedProcedureStepStartTime": "101247.443000",
            "PhotometricInterpretation": "MONOCHROME2",
            "PixelBandwidth": 2300.0,
            "PixelRepresentation": 0,
            "PixelSpacing": [
                3.0,
                3.0
            ],
            "ProtocolName": "cmrr_mbep2d_Pictures_AP_RDS",
            "RepetitionTime": 610.0,
            "Rows": 384,
            "SAR": 0.29300049207333,
            "SamplesPerPixel": 1,
            "ScanOptions": "FS",
            "ScanningSequence": "EP",
            "SequenceName": "*epfid2d1_64",
            "SequenceVariant": "SK",
            "SeriesDescription": "cmrr_mbep2d_Pictures_AP_RDS",
            "SeriesNumber": 13,
            "SeriesTime": "103709.844000",
            "SliceLocation": -102.87308069387,
            "SliceThickness": 3.0,
            "SmallestImagePixelValue": 0,
            "SoftwareVersions": "syngo MR E11",
            "SpacingBetweenSlices": 3.3000000383631,
            "SpecificCharacterSet": "ISO_IR 100",
            "StudyID": "1",
            "StudyTime": "101247.262000",
            "TransmitCoilName": "Body",
            "VariableFlipAngleFlag": "N",
            "WindowCenterWidthExplanation": "Algo1"
        },
        "slices": {}
    },
    "time": {
        "samples": {
            "AcquisitionNumber": [
                1,
                2,
                3,
                4,
                5,
                6,
                7,
                8,
                9,
                10,
                11,
                12,
                13,
                14,
                15,
                16,
                17,
                18,
                19,
                20,
                21,
                22,
                23,
                24,
                25,
                26,
                27,
                28,
                29,
                30,
                31,
                32,
                33,
                34,
                35,
                36,
                37,
                38,
                39,
                40,
                41,
                42,
                43,
                44,
                45,
                46,
                47,
                48,
                49,
                50,
                51,
                52,
                53,
                54,
                55,
                56,
                57,
                58,
                59,
                60,
                61,
                62,
                63,
                64,
                65,
                66,
                67,
                68,
                69,
                70,
                71,
                72,
                73,
                74,
                75,
                76,
                77,
                78,
                79,
                80,
                81,
                82,
                83,
                84,
                85,
                86,
                87,
                88,
                89,
                90,
                91,
                92,
                93,
                94,
                95,
                96,
                97,
                98,
                99,
                100,
                101,
                102,
                103,
                104,
                105,
                106,
                107,
                108,
                109,
                110,
                111,
                112,
                113,
                114,
                115,
                116,
                117,
                118,
                119,
                120,
                121,
                122,
                123,
                124,
                125,
                126,
                127,
                128,
                129,
                130,
                131,
                132,
                133,
                134,
                135,
                136,
                137,
                138,
                139,
                140,
                141,
                142,
                143,
                144,
                145,
                146,
                147,
                148,
                149,
                150,
                151,
                152,
                153,
                154,
                155,
                156,
                157,
                158,
                159,
                160,
                161,
                162,
                163,
                164,
                165,
                166,
                167,
                168,
                169,
                170,
                171,
                172,
                173,
                174,
                175,
                176,
                177,
                178,
                179,
                180,
                181,
                182,
                183,
                184,
                185,
                186,
                187,
                188,
                189,
                190,
                191,
                192,
                193,
                194,
                195,
                196,
                197,
                198,
                199,
                200,
                201,
                202,
                203,
                204,
                205,
                206,
                207,
                208,
                209,
                210,
                211,
                212,
                213,
                214,
                215,
                216,
                217,
                218,
                219,
                220,
                221,
                222,
                223,
                224,
                225,
                226,
                227,
                228,
                229,
                230,
                231,
                232,
                233,
                234,
                235,
                236,
                237,
                238,
                239,
                240,
                241,
                242,
                243,
                244,
                245,
                246,
                247,
                248,
                249,
                250,
                251,
                252,
                253,
                254,
                255,
                256,
                257,
                258,
                259,
                260,
                261,
                262,
                263,
                264,
                265,
                266,
                267,
                268,
                269,
                270,
                271,
                272,
                273,
                274,
                275,
                276,
                277,
                278,
                279,
                280,
                281,
                282,
                283,
                284,
                285,
                286,
                287,
                288,
                289,
                290,
                291,
                292,
                293,
                294,
                295,
                296,
                297,
                298,
                299,
                300,
                301,
                302,
                303,
                304,
                305,
                306,
                307,
                308,
                309,
                310,
                311,
                312,
                313,
                314,
                315,
                316,
                317,
                318,
                319,
                320,
                321,
                322,
                323,
                324,
                325,
                326,
                327,
                328,
                329,
                330,
                331,
                332,
                333,
                334,
                335,
                336,
                337,
                338,
                339,
                340,
                341,
                342,
                343,
                344,
                345,
                346,
                347,
                348,
                349,
                350,
                351,
                352,
                353,
                354,
                355,
                356,
                357,
                358,
                359,
                360,
                361,
                362,
                363,
                364,
                365,
                366,
                367,
                368,
                369,
                370,
                371,
                372,
                373,
                374,
                375,
                376,
                377,
                378,
                379,
                380,
                381,
                382,
                383,
                384,
                385,
                386,
                387,
                388,
                389,
                390,
                391,
                392,
                393,
                394,
                395,
                396,
                397,
                398,
                399,
                400,
                401,
                402,
                403,
                404,
                405,
                406,
                407,
                408,
                409,
                410,
                411,
                412,
                413,
                414,
                415,
                416,
                417,
                418,
                419,
                420,
                421,
                422,
                423,
                424,
                425,
                426,
                427,
                428,
                429,
                430,
                431,
                432,
                433,
                434,
                435,
                436,
                437,
                438,
                439,
                440,
                441,
                442,
                443,
                444,
                445,
                446,
                447,
                448,
                449,
                450,
                451,
                452,
                453,
                454,
                455,
                456,
                457,
                458,
                459,
                460,
                461,
                462,
                463,
                464,
                465,
                466,
                467,
                468,
                469,
                470,
                471,
                472,
                473,
                474,
                475,
                476,
                477,
                478,
                479,
                480,
                481,
                482,
                483,
                484,
                485,
                486,
                487,
                488,
                489,
                490,
                491,
                492,
                493,
                494,
                495,
                496,
                497,
                498,
                499,
                500,
                501,
                502,
                503,
                504,
                505,
                506,
                507,
                508,
                509,
                510
            ],
            "AcquisitionTime": [
                "103649.727500",
                "103650.337500",
                "103650.947500",
                "103651.557500",
                "103652.167500",
                "103652.777500",
                "103653.387500",
                "103653.997500",
                "103654.607500",
                "103655.217500",
                "103655.827500",
                "103656.437500",
                "103657.047500",
                "103657.657500",
                "103658.267500",
                "103658.877500",
                "103659.487500",
                "103700.097500",
                "103700.707500",
                "103701.317500",
                "103701.927500",
                "103702.537500",
                "103703.147500",
                "103703.757500",
                "103704.367500",
                "103704.977500",
                "103705.587500",
                "103706.197500",
                "103706.807500",
                "103707.417500",
                "103708.027500",
                "103708.637500",
                "103709.247500",
                "103709.857500",
                "103710.467500",
                "103711.077500",
                "103711.687500",
                "103712.297500",
                "103712.907500",
                "103713.517500",
                "103714.127500",
                "103714.737500",
                "103715.347500",
                "103715.957500",
                "103716.567500",
                "103717.177500",
                "103717.787500",
                "103718.397500",
                "103719.007500",
                "103719.617500",
                "103720.227500",
                "103720.837500",
                "103721.447500",
                "103722.057500",
                "103722.667500",
                "103723.277500",
                "103723.887500",
                "103724.497500",
                "103725.107500",
                "103725.717500",
                "103726.327500",
                "103726.937500",
                "103727.547500",
                "103728.157500",
                "103728.767500",
                "103729.377500",
                "103729.987500",
                "103730.597500",
                "103731.207500",
                "103731.817500",
                "103732.427500",
                "103733.037500",
                "103733.647500",
                "103734.257500",
                "103734.867500",
                "103735.477500",
                "103736.087500",
                "103736.697500",
                "103737.307500",
                "103737.917500",
                "103738.527500",
                "103739.137500",
                "103739.747500",
                "103740.357500",
                "103740.967500",
                "103741.577500",
                "103742.187500",
                "103742.797500",
                "103743.407500",
                "103744.017500",
                "103744.627500",
                "103745.237500",
                "103745.847500",
                "103746.457500",
                "103747.067500",
                "103747.677500",
                "103748.287500",
                "103748.897500",
                "103749.507500",
                "103750.117500",
                "103750.727500",
                "103751.337500",
                "103751.947500",
                "103752.557500",
                "103753.167500",
                "103753.777500",
                "103754.387500",
                "103754.997500",
                "103755.607500",
                "103756.217500",
                "103756.827500",
                "103757.437500",
                "103758.047500",
                "103758.657500",
                "103759.267500",
                "103759.877500",
                "103800.487500",
                "103801.097500",
                "103801.707500",
                "103802.317500",
                "103802.927500",
                "103803.537500",
                "103804.147500",
                "103804.757500",
                "103805.367500",
                "103805.977500",
                "103806.587500",
                "103807.197500",
                "103807.807500",
                "103808.417500",
                "103809.027500",
                "103809.637500",
                "103810.247500",
                "103810.857500",
                "103811.467500",
                "103812.077500",
                "103812.687500",
                "103813.297500",
                "103813.907500",
                "103814.517500",
                "103815.127500",
                "103815.737500",
                "103816.347500",
                "103816.957500",
                "103817.567500",
                "103818.177500",
                "103818.787500",
                "103819.397500",
                "103820.007500",
                "103820.617500",
                "103821.227500",
                "103821.837500",
                "103822.447500",
                "103823.057500",
                "103823.667500",
                "103824.277500",
                "103824.887500",
                "103825.497500",
                "103826.107500",
                "103826.717500",
                "103827.327500",
                "103827.937500",
                "103828.547500",
                "103829.157500",
                "103829.767500",
                "103830.377500",
                "103830.987500",
                "103831.597500",
                "103832.207500",
                "103832.817500",
                "103833.427500",
                "103834.037500",
                "103834.647500",
                "103835.257500",
                "103835.867500",
                "103836.477500",
                "103837.087500",
                "103837.697500",
                "103838.307500",
                "103838.917500",
                "103839.527500",
                "103840.137500",
                "103840.747500",
                "103841.357500",
                "103841.967500",
                "103842.577500",
                "103843.187500",
                "103843.797500",
                "103844.407500",
                "103845.017500",
                "103845.627500",
                "103846.237500",
                "103846.847500",
                "103847.457500",
                "103848.067500",
                "103848.677500",
                "103849.287500",
                "103849.897500",
                "103850.507500",
                "103851.117500",
                "103851.727500",
                "103852.337500",
                "103852.947500",
                "103853.557500",
                "103854.167500",
                "103854.777500",
                "103855.387500",
                "103855.997500",
                "103856.607500",
                "103857.217500",
                "103857.827500",
                "103858.437500",
                "103859.047500",
                "103859.657500",
                "103900.267500",
                "103900.877500",
                "103901.487500",
                "103902.097500",
                "103902.707500",
                "103903.317500",
                "103903.927500",
                "103904.537500",
                "103905.147500",
                "103905.757500",
                "103906.367500",
                "103906.977500",
                "103907.587500",
                "103908.197500",
                "103908.807500",
                "103909.417500",
                "103910.027500",
                "103910.637500",
                "103911.247500",
                "103911.857500",
                "103912.467500",
                "103913.077500",
                "103913.687500",
                "103914.297500",
                "103914.907500",
                "103915.517500",
                "103916.127500",
                "103916.737500",
                "103917.347500",
                "103917.957500",
                "103918.567500",
                "103919.177500",
                "103919.787500",
                "103920.397500",
                "103921.007500",
                "103921.617500",
                "103922.227500",
                "103922.837500",
                "103923.447500",
                "103924.057500",
                "103924.667500",
                "103925.277500",
                "103925.887500",
                "103926.497500",
                "103927.107500",
                "103927.717500",
                "103928.327500",
                "103928.937500",
                "103929.547500",
                "103930.157500",
                "103930.767500",
                "103931.377500",
                "103931.987500",
                "103932.597500",
                "103933.207500",
                "103933.817500",
                "103934.427500",
                "103935.037500",
                "103935.647500",
                "103936.257500",
                "103936.867500",
                "103937.477500",
                "103938.087500",
                "103938.697500",
                "103939.307500",
                "103939.917500",
                "103940.527500",
                "103941.137500",
                "103941.747500",
                "103942.357500",
                "103942.967500",
                "103943.577500",
                "103944.187500",
                "103944.797500",
                "103945.407500",
                "103946.017500",
                "103946.627500",
                "103947.237500",
                "103947.847500",
                "103948.457500",
                "103949.067500",
                "103949.677500",
                "103950.287500",
                "103950.897500",
                "103951.507500",
                "103952.117500",
                "103952.727500",
                "103953.337500",
                "103953.947500",
                "103954.557500",
                "103955.167500",
                "103955.777500",
                "103956.387500",
                "103956.997500",
                "103957.607500",
                "103958.217500",
                "103958.827500",
                "103959.437500",
                "104000.047500",
                "104000.657500",
                "104001.267500",
                "104001.877500",
                "104002.487500",
                "104003.097500",
                "104003.707500",
                "104004.317500",
                "104004.927500",
                "104005.537500",
                "104006.147500",
                "104006.757500",
                "104007.367500",
                "104007.977500",
                "104008.587500",
                "104009.197500",
                "104009.807500",
                "104010.417500",
                "104011.027500",
                "104011.637500",
                "104012.247500",
                "104012.857500",
                "104013.467500",
                "104014.077500",
                "104014.687500",
                "104015.297500",
                "104015.907500",
                "104016.517500",
                "104017.127500",
                "104017.737500",
                "104018.347500",
                "104018.957500",
                "104019.567500",
                "104020.177500",
                "104020.787500",
                "104021.397500",
                "104022.007500",
                "104022.617500",
                "104023.227500",
                "104023.837500",
                "104024.447500",
                "104025.057500",
                "104025.667500",
                "104026.277500",
                "104026.887500",
                "104027.497500",
                "104028.107500",
                "104028.717500",
                "104029.327500",
                "104029.937500",
                "104030.547500",
                "104031.157500",
                "104031.767500",
                "104032.377500",
                "104032.987500",
                "104033.597500",
                "104034.207500",
                "104034.817500",
                "104035.427500",
                "104036.037500",
                "104036.647500",
                "104037.257500",
