{"AcquisitionMatrixPE": 64, "AcquisitionNumber": 1, "AcquisitionTime": "11:31:27.712500", "BandwidthPerPixelPhaseEncode": 28.935, "BaseResolution": 64, "BodyPartExamined": "BRAIN", "CoilString": "HC2_4_6_7;SC", "ConsistencyInfo": "N4_VE11E_LATEST_20181129", "ConversionSoftware": "dcm2niix", "ConversionSoftwareVersion": "v1.0.20190902", "DerivedVendorReportedEchoSpacing": 0.000540003, "DeviceSerialNumber": "166182", "DwellTime": 3.4e-06, "EchoTime": 0.032, "EchoTrainLength": 64, "EffectiveEchoSpacing": 0.000540003, "FlipAngle": 40, "ImageOrientationPatientDICOM": [0.998117, 0.00882765, -0.0606994, -0.00522618, 0.99823, 0.0592376], "ImageType": ["ORIGINAL", "PRIMARY", "M", "ND", "NORM", "MOSAIC"], "ImagingFrequency": 123.256, "InPlanePhaseEncodingDirectionDICOM": "COL", "InstitutionAddress": "PEARSE_STREET_._City_District_IE_D2", "InstitutionName": "TCIN", "InstitutionalDepartmentName": "MRI", "MRAcquisitionType": "2D", "MagneticFieldStrength": 3, "Manufacturer": "Siemens", "ManufacturersModelName": "Prisma", "Modality": "MR", "MultibandAccelerationFactor": 4, "PartialFourier": 1, "PatientPosition": "HFS", "PercentPhaseFOV": 100, "PhaseEncodingDirection": "j-", "PhaseEncodingSteps": 64, "PhaseResolution": 1, "PixelBandwidth": 2300, "ProcedureStepDescription": "Rhodri_Head_BOLD", "ProtocolName": "cmrr_mbep2d_Pictures_AP_RDS", "PulseSequenceDetails": "%SiemensSeq%_ep2d_bold", "ReceiveCoilActiveElements": "HC2,4,6,7;SC", "ReceiveCoilName": "SpecialPurpose_4", "ReconMatrixPE": 64, "RefLinesPE": 12, "RepetitionTime": 0.61, "SAR": 0.276422, "ScanOptions": "FS", "ScanningSequence": "EP", "SequenceName": "_epfid2d1_64", "SequenceVariant": "SK", "SeriesDescription": "cmrr_mbep2d_Pictures_AP_RDS", "SeriesNumber": 8, "ShimSetting": [-3691, -7444, 4079, 1119, -103, 775, -103, -155], "SliceThickness": 3, "SliceTiming": [0.2625, 0, 0.3275, 0.065, 0.3925, 0.13, 0.46, 0.1975, 0.525, 0.2625, 0, 0.3275, 0.065, 0.3925, 0.13, 0.46, 0.1975, 0.525, 0.2625, 0, 0.3275, 0.065, 0.3925, 0.13, 0.46, 0.1975, 0.525, 0.2625, 0, 0.3275, 0.065, 0.3925, 0.13, 0.46, 0.1975, 0.525], "SoftwareVersions": "syngo_MR_E11", "SpacingBetweenSlices": 3.3, "StationName": "AWP166182", "TaskName": "pictures", "TotalReadoutTime": 0.0340202, "TxRefAmp": 219.962, "dcmmeta_affine": [[-2.9943511486053467, -0.015678539872169495, -0.2016792595386505, 97.43758392333984], [-0.026482952758669853, 2.9946906566619873, 0.19406920671463013, -115.56741333007812], [-0.18209825456142426, -0.1777128428220749, 3.288109302520752, -58.90691375732422], [0.0, 0.0, 0.0, 1.0]], "dcmmeta_reorient_transform": [[0.0, -1.0, 0.0, 63.0], [1.0, 0.0, 0.0, 0.0], [0.0, 0.0, 1.0, 0.0], [0.0, 0.0, 0.0, 1.0]], "dcmmeta_shape": [64, 64, 36, 510], "dcmmeta_slice_dim": 2, "dcmmeta_version": 0.6, "global": {"const": {"AcquisitionMatrix": [64, 0, 0, 64], "AngioFlag": "N", "BitsAllocated": 16, "BitsStored": 12, "BodyPartExamined": "BRAIN", "Columns": 384, "EchoNumbers": 1, "EchoTime": 32.0, "EchoTrainLength": 64, "FlipAngle": 40.0, "HighBit": 11, "ImageOrientationPatient": [0.99811705383918, 0.00882765122428, -0.0606994185249, -0.0052261800701, 0.99823022989275, 0.05923761617538], "ImagePositionPatient": [-573.03745713855, -556.48588319406, -69.401158279761], "ImageType": ["ORIGINAL", "PRIMARY", "M", "ND", "NORM", "MOSAIC"], "ImagedNucleus": "1H", "ImagingFrequency": 123.256006, "InPlanePhaseEncodingDirection": "COL", "MRAcquisitionType": "2D", "MagneticFieldStrength": 3.0, "Manufacturer": "SIEMENS", "ManufacturerModelName": "Prisma", "Modality": "MR", "NumberOfAverages": 1.0, "NumberOfPhaseEncodingSteps": 64, "PercentPhaseFieldOfView": 100.0, "PercentSampling": 100.0, "PerformedProcedureStepStartTime": "112041.141000", "PhotometricInterpretation": "MONOCHROME2", "PixelBandwidth": 2300.0, "PixelRepresentation": 0, "PixelSpacing": [3.0, 3.0], "ProtocolName": "cmrr_mbep2d_Pictures_AP_RDS", "RepetitionTime": 610.0, "Rows": 384, "SAR": 0.27642209734831, "SamplesPerPixel": 1, "ScanOptions": "FS", "ScanningSequence": "EP", "SequenceName": "*epfid2d1_64", "SequenceVariant": "SK", "SeriesDescription": "cmrr_mbep2d_Pictures_AP_RDS", "SeriesNumber": 8, "SeriesTime": "113158.403000", "SliceLocation": -71.445934807786, "SliceThickness": 3.0, "SmallestImagePixelValue": 0, "SoftwareVersions": "syngo MR E11", "SpacingBetweenSlices": 3.300000093122, "SpecificCharacterSet": "ISO_IR 100", "StudyID": "3", "StudyTime": "112041.093000", "TransmitCoilName": "Body", "VariableFlipAngleFlag": "N", "WindowCenterWidthExplanation": "Algo1"}, "slices": {}}, "time": {"samples": {"AcquisitionNumber": [1, 2, 3, 4, 5, 6, 7, 8, 9, 10, 11, 12, 13, 14, 15, 16, 17, 18, 19, 20, 21, 22, 23, 24, 25, 26, 27, 28, 29, 30, 31, 32, 33, 34, 35, 36, 37, 38, 39, 40, 41, 42, 43, 44, 45, 46, 47, 48, 49, 50, 51, 52, 53, 54, 55, 56, 57, 58, 59, 60, 61, 62, 63, 64, 65, 66, 67, 68, 69, 70, 71, 72, 73, 74, 75, 76, 77, 78, 79, 80, 81, 82, 83, 84, 85, 86, 87, 88, 89, 90, 91, 92, 93, 94, 95, 96, 97, 98, 99, 100, 101, 102, 103, 104, 105, 106, 107, 108, 109, 110, 111, 112, 113, 114, 115, 116, 117, 118, 119, 120, 121, 122, 123, 124, 125, 126, 127, 128, 129, 130, 131, 132, 133, 134, 135, 136, 137, 138, 139, 140, 141, 142, 143, 144, 145, 146, 147, 148, 149, 150, 151, 152, 153, 154, 155, 156, 157, 158, 159, 160, 161, 162, 163, 164, 165, 166, 167, 168, 169, 170, 171, 172, 173, 174, 175, 176, 177, 178, 179, 180, 181, 182, 183, 184, 185, 186, 187, 188, 189, 190, 191, 192, 193, 194, 195, 196, 197, 198, 199, 200, 201, 202, 203, 204, 205, 206, 207, 208, 209, 210, 211, 212, 213, 214, 215, 216, 217, 218, 219, 220, 221, 222, 223, 224, 225, 226, 227, 228, 229, 230, 231, 232, 233, 234, 235, 236, 237, 238, 239, 240, 241, 242, 243, 244, 245, 246, 247, 248, 249, 250, 251, 252, 253, 254, 255, 256, 257, 258, 259, 260, 261, 262, 263, 264, 265, 266, 267, 268, 269, 270, 271, 272, 273, 274, 275, 276, 277, 278, 279, 280, 281, 282, 283, 284, 285, 286, 287, 288, 289, 290, 291, 292, 293, 294, 295, 296, 297, 298, 299, 300, 301, 302, 303, 304, 305, 306, 307, 308, 309, 310, 311, 312, 313, 314, 315, 316, 317, 318, 319, 320, 321, 322, 323, 324, 325, 326, 327, 328, 329, 330, 331, 332, 333, 334, 335, 336, 337, 338, 339, 340, 341, 342, 343, 344, 345, 346, 347, 348, 349, 350, 351, 352, 353, 354, 355, 356, 357, 358, 359, 360, 361, 362, 363, 364, 365, 366, 367, 368, 369, 370, 371, 372, 373, 374, 375, 376, 377, 378, 379, 380, 381, 382, 383, 384, 385, 386, 387, 388, 389, 390, 391, 392, 393, 394, 395, 396, 397, 398, 399, 400, 401, 402, 403, 404, 405, 406, 407, 408, 409, 410, 411, 412, 413, 414, 415, 416, 417, 418, 419, 420, 421, 422, 423, 424, 425, 426, 427, 428, 429, 430, 431, 432, 433, 434, 435, 436, 437, 438, 439, 440, 441, 442, 443, 444, 445, 446, 447, 448, 449, 450, 451, 452, 453, 454, 455, 456, 457, 458, 459, 460, 461, 462, 463, 464, 465, 466, 467, 468, 469, 470, 471, 472, 473, 474, 475, 476, 477, 478, 479, 480, 481, 482, 483, 484, 485, 486, 487, 488, 489, 490, 491, 492, 493, 494, 495, 496, 497, 498, 499, 500, 501, 502, 503, 504, 505, 506, 507, 508, 509, 510], "AcquisitionTime": ["113127.712500", "113128.322500", "113128.932500", "113129.542500", "113130.152500", "113130.762500", "113131.372500", "113131.982500", "113132.592500", "113133.202500", "113133.812500", "113134.422500", "113135.032500", "113135.642500", "113136.252500", "113136.862500", "113137.472500", "113138.082500", "113138.692500", "113139.302500", "113139.912500", "113140.522500", "113141.132500", "113141.742500", "113142.352500", "113142.962500", "113143.572500", "113144.182500", "113144.792500", "113145.402500", "113146.012500", "113146.622500", "113147.232500", "113147.842500", "113148.452500", "113149.062500", "113149.672500", "113150.282500", "113150.892500", "113151.502500", "113152.112500", "113152.722500", "113153.332500", "113153.942500", "113154.552500", "113155.162500", "113155.772500", "113156.382500", "113156.992500", "113157.602500", "113158.212500", "113158.822500", "113159.432500", "113200.042500", "113200.652500", "113201.262500", "113201.872500", "113202.482500", "113203.092500", "113203.702500", "113204.312500", "113204.922500", "113205.532500", "113206.142500", "113206.752500", "113207.362500", "113207.972500", "113208.582500", "113209.192500", "113209.802500", "113210.412500", "113211.022500", "113211.632500", "113212.242500", "113212.852500", "113213.462500", "113214.072500", "113214.682500", "113215.292500", "113215.902500", "113216.512500", "113217.122500", "113217.732500", "113218.342500", "113218.952500", "113219.562500", "113220.172500", "113220.782500", "113221.392500", "113222.002500", "113222.612500", "113223.222500", "113223.832500", "113224.442500", "113225.052500", "113225.662500", "113226.272500", "113226.882500", "113227.492500", "113228.102500", "113228.712500", "113229.322500", "113229.932500", "113230.542500", "113231.152500", "113231.762500", "113232.372500", "113232.982500", "113233.592500", "113234.202500", "113234.812500", "113235.422500", "113236.032500", "113236.642500", "113237.252500", "113237.862500", "113238.472500", "113239.082500", "113239.692500", "113240.302500", "113240.912500", "113241.522500", "113242.132500", "113242.742500", "113243.352500", "113243.962500", "113244.572500", "113245.182500", "113245.792500", "113246.402500", "113247.012500", "113247.622500", "113248.232500", "113248.842500", "113249.452500", "113250.062500", "113250.672500", "113251.282500", "113251.892500", "113252.502500", "113253.112500", "113253.722500", "113254.332500", "113254.942500", "113255.552500", "113256.162500", "113256.772500", "113257.382500", "113257.992500", "113258.602500", "113259.212500", "113259.822500", "113300.432500", "113301.042500", "113301.652500", "113302.262500", "113302.872500", "113303.482500", "113304.092500", "113304.702500", "113305.312500", "113305.922500", "113306.532500", "113307.142500", "113307.752500", "113308.362500", "113308.972500", "113309.582500", "113310.192500", "113310.802500", "113311.412500", "113312.022500", "113312.632500", "113313.242500", "113313.852500", "113314.462500", "113315.072500", "113315.682500", "113316.292500", "113316.902500", "113317.512500", "113318.122500", "113318.732500", "113319.342500", "113319.952500", "113320.562500", "113321.172500", "113321.782500", "113322.392500", "113323.002500", "113323.612500", "113324.222500", "113324.832500", "113325.442500", "113326.052500", "113326.662500", "113327.272500", "113327.882500", "113328.492500", "113329.102500", "113329.712500", "113330.322500", "113330.932500", "113331.542500", "113332.152500", "113332.762500", "113333.372500", "113333.982500", "113334.592500", "113335.202500", "113335.812500", "113336.422500", "113337.032500", "113337.642500", "113338.252500", "113338.862500", "113339.472500", "113340.082500", "113340.692500", "113341.302500", "113341.912500", "113342.522500", "113343.132500", "113343.742500", "113344.352500", "113344.962500", "113345.572500", "113346.182500", "113346.792500", "113347.402500", "113348.012500", "113348.622500", "113349.232500", "113349.842500", "113350.452500", "113351.062500", "113351.672500", "113352.282500", "113352.892500", "113353.502500", "113354.112500", "113354.722500", "113355.332500", "113355.942500", "113356.552500", "113357.162500", "113357.772500", "113358.382500", "113358.992500", "113359.602500", "113400.212500", "113400.822500", "113401.432500", "113402.042500", "113402.652500", "113403.262500", "113403.872500", "113404.482500", "113405.092500", "113405.702500", "113406.312500", "113406.922500", "113407.532500", "113408.142500", "113408.752500", "113409.362500", "113409.972500", "113410.582500", "113411.192500", "113411.802500", "113412.412500", "113413.022500", "113413.632500", "113414.242500", "113414.852500", "113415.462500", "113416.072500", "113416.682500", "113417.292500", "113417.902500", "113418.512500", "113419.122500", "113419.732500", "113420.342500", "113420.952500", "113421.562500", "113422.172500", "113422.782500", "113423.392500", "113424.002500", "113424.612500", "113425.222500", "113425.832500", "113426.442500", "113427.052500", "113427.662500", "113428.272500", "113428.882500", "113429.492500", "113430.102500", "113430.712500", "113431.322500", "113431.932500", "113432.542500", "113433.152500", "113433.762500", "113434.372500", "113434.982500", "113435.592500", "113436.202500", "113436.812500", "113437.422500", "113438.032500", "113438.642500", "113439.252500", "113439.862500", "113440.472500", "113441.082500", "113441.692500", "113442.302500", "113442.912500", "113443.522500", "113444.132500", "113444.742500", "113445.352500", "113445.962500", "113446.572500", "113447.182500", "113447.792500", "113448.402500", "113449.012500", "113449.622500", "113450.232500", "113450.842500", "113451.452500", "113452.062500", "113452.672500", "113453.282500", "113453.892500", "113454.502500", "113455.112500", "113455.722500", "113456.332500", "113456.942500", "113457.552500", "113458.162500", "113458.772500", "113459.382500", "113459.992500", "113500.602500", "113501.212500", "113501.822500", "113502.432500", "113503.042500", "113503.652500", "113504.262500", "113504.872500", "113505.482500", "113506.092500", "113506.702500", "113507.312500", "113507.922500", "113508.532500", "113509.142500", "113509.752500", "113510.362500", "113510.972500", "113511.582500", "113512.192500", "113512.802500", "113513.412500", "113514.022500", "113514.632500", "113515.242500", "113515.852500", "113516.462500", "113517.072500", "113517.682500", "113518.292500", "113518.902500", "113519.512500", "113520.122500", "113520.732500", "113521.342500", "113521.952500", "113522.562500", "113523.172500", "113523.782500", "113524.392500", "113525.002500", "113525.612500", "113526.222500", "113526.832500", "113527.442500", "113528.052500", "113528.662500", "113529.272500", "113529.882500", "113530.492500", "113531.102500", "113531.712500", "113532.322500", "113532.932500", "113533.542500", "113534.152500", "113534.762500", "113535.372500", "113535.982500", "113536.592500", "113537.202500", "113537.812500", "113538.422500", "113539.032500", "113539.642500", "113540.252500", "113540.862500", "113541.472500", "113542.082500", "113542.692500", "113543.302500", "113543.912500", "113544.522500", "113545.132500", "113545.742500", "113546.352500", "113546.962500", "113547.572500", "113548.182500", "113548.792500", "113549.402500", "113550.012500", "113550.622500", "113551.232500", "113551.842500", "113552.452500", "113553.062500", "113553.672500", "113554.282500", "113554.892500", "113555.502500", "113556.112500", "113556.722500", "113557.332500", "113557.942500", "113558.552500", "113559.162500", "113559.772500", "113600.382500", "113600.992500", "113601.602500", "113602.212500", "113602.822500", "113603.432500", "113604.042500", "113604.652500", "113605.262500", "113605.872500", "113606.482500", "113607.092500", "113607.702500", "113608.312500", "113608.922500", "113609.532500", "113610.142500", "113610.752500", "113611.362500", "113611.972500", "113612.582500", "113613.192500", "113613.802500", "113614.412500", "113615.022500", "113615.632500", "113616.242500", "113616.852500", "113617.462500", "113618.072500", "113618.682500", "113619.292500", "113619.902500", "113620.512500", "113621.122500", "113621.732500", "113622.342500", "113622.952500", "113623.562500", "113624.172500", "113624.782500", "113625.392500", "113626.002500", "113626.612500", "113627.222500", "113627.832500", "113628.442500", "113629.052500", "113629.662500", "113630.272500", "113630.882500", "113631.492500", "113632.102500", "113632.712500", "113633.322500", "113633.932500", "113634.542500", "113635.152500", "113635.762500", "113636.372500", "113636.982500", "113637.592500", "113638.202500"], "ContentTime": ["113158.407000", "113158.410000", "113158.412000", "113158.415000", "113158.417000", "113158.419000", "113158.422000", "113158.424000", "113158.426000", "113158.429000", "113158.431000", "113158.434000", "113158.436000", "113158.438000", "113158.441000", "113158.446000", "113158.449000", "113158.451000", "113158.453000", "113158.456000", "113158.458000", "113158.461000", "113158.463000", "113158.465000", "113158.468000", "113158.470000", "113158.472000", "113158.475000", "113158.477000", "113158.480000", "113158.482000", "113158.484000", "113158.489000", "113158.492000", "113158.494000", "113158.496000", "113158.499000", "113158.501000", "113158.504000", "113158.506000", "113158.508000", "113158.511000", "113158.513000", "113158.515000", "113158.518000", "113158.520000", "113158.522000", "113158.525000", "113158.527000", "113218.401000", "113218.404000", "113218.406000", "113218.408000", "113218.411000", "113218.413000", "113218.415000", "113218.418000", "113218.420000", "113218.423000", "113218.425000", "113218.427000", "113218.430000", "113218.432000", "113218.435000", "113218.437000", "113218.439000", "113218.442000", "113218.444000", "113218.446000", "113218.449000", "113218.451000", "113218.454000", "113218.456000", "113218.458000", "113218.461000", "113218.463000", "113218.465000", "113218.468000", "113218.470000", "113218.472000", "113218.475000", "113218.484000", "113238.401000", "113238.404000", "113238.406000", "113238.409000", "113238.411000", "113238.414000", "113238.416000", "113238.418000", "113238.421000", "113238.424000", "113238.426000", "113238.428000", "113238.431000", "113238.433000", "113238.436000", "113238.438000", "113238.440000", "113238.443000", "113238.445000", "113238.447000", "113238.450000", "113238.452000", "113238.454000", "113238.457000", "113238.459000", "113238.462000", "113238.464000", "113238.466000", "113238.469000", "113238.471000", "113238.473000", "113238.476000", "113238.478000", "113258.401000", "113258.404000", "113258.407000", "113258.409000", "113258.417000", "113258.420000", "113258.422000", "113258.424000", "113258.427000", "113258.429000", "113258.432000", "113258.434000", "113258.436000", "113258.439000", "113258.441000", "113258.443000", "113258.446000", "113258.448000", "113258.451000", "113258.453000", "113258.455000", "113258.458000", "113258.460000", "113258.463000", "113258.465000", "113258.467000", "113258.470000", "113258.472000", "113258.475000", "113258.477000", "113258.479000", "113258.482000", "113258.484000", "113318.401000", "113318.404000", "113318.406000", "113318.409000", "113318.411000", "113318.413000", "113318.416000", "113318.418000", "113318.420000", "113318.423000", "113318.425000", "113318.427000", "113318.430000", "113318.432000", "113318.434000", "113318.437000", "113318.439000", "113318.441000", "113318.444000", "113318.446000", "113318.449000", "113318.451000", "113318.453000", "113318.456000", "113318.458000", "113318.460000", "113318.463000", "113318.465000", "113318.468000", "113318.478000", "113318.480000", "113318.483000", "113318.485000", "113338.401000", "113338.404000", "113338.406000", "113338.409000", "113338.411000", "113338.413000", "113338.416000", "113338.418000", "113338.420000", "113338.423000", "113338.425000", "113338.428000", "113338.430000", "113338.433000", "113338.435000", "113338.438000", "113338.440000", "113338.443000", "113338.445000", "113338.447000", "113338.450000", "113338.452000", "113338.454000", "113338.457000", "113338.459000", "113338.462000", "113338.464000", "113338.466000", "113338.469000", "113338.471000", "113338.474000", "113338.476000", "113358.401000", "113358.404000", "113358.406000", "113358.409000", "113358.411000", "113358.415000", "113358.417000", "113358.419000", "113358.422000", "113358.424000", "113358.426000", "113358.429000", "113358.431000", "113358.433000", "113358.436000", "113358.438000", "113358.440000", "113358.443000", "113358.445000", "113358.447000", "113358.450000", "113358.452000", "113358.470000", "113358.473000", "113358.475000", "113358.478000", "113358.480000", "113358.483000", "113358.485000", "113358.487000", "113358.490000", "113358.492000", "113358.494000", "113418.400000", "113418.403000", "113418.405000", "113418.407000", "113418.410000", "113418.412000", "113418.414000", "113418.417000", "113418.419000", "113418.421000", "113418.424000", "113418.426000", "113418.429000", "113418.431000", "113418.433000", "113418.436000", "113418.438000", "113418.440000", "113418.443000", "113418.445000", "113418.447000", "113418.450000", "113418.452000", "113418.455000", "113418.457000", "113418.459000", "113418.461000", "113418.464000", "113418.466000", "113418.469000", "113418.471000", "113418.473000", "113418.476000", "113438.401000", "113438.404000", "113438.406000", "113438.409000", "113438.411000", "113438.413000", "113438.416000", "113438.418000", "113438.420000", "113438.423000", "113438.425000", "113438.427000", "113438.430000", "113438.432000", "113438.435000", "113438.437000", "113438.439000", "113438.442000", "113438.444000", "113438.447000", "113438.449000", "113438.451000", "113438.454000", "113438.456000", "113438.458000", "113438.461000", "113438.463000", "113438.465000", "113438.468000", "113438.470000", "113438.472000", "113438.475000", "113438.477000", "113458.401000", "113458.404000", "113458.406000", "113458.408000", "113458.411000", "113458.413000", "113458.415000", "113458.418000", "113458.420000", "113458.422000", "113458.425000", "113458.427000", "113458.430000", "113458.432000", "113458.435000", "113458.437000", "113458.439000", "113458.442000", "113458.444000", "113458.446000", "113458.449000", "113458.451000", "113458.454000", "113458.456000", "113458.458000", "113458.461000", "113458.463000", "113458.465000", "113458.468000", "113458.470000", "113458.472000", "113458.475000", "113458.477000", "113518.401000", "113518.404000", "113518.406000", "113518.409000", "113518.411000", "113518.413000", "113518.416000", "113518.418000", "113518.421000", "113518.423000", "113518.425000", "113518.428000", "113518.430000", "113518.432000", "113518.435000", "113518.437000", "113518.440000", "113518.442000", "113518.444000", "113518.447000", "113518.449000", "113518.451000", "113518.454000", "113518.456000", "113518.459000", "113518.461000", "113518.463000", "113518.466000", "113518.468000", "113518.471000", "113518.473000", "113518.475000", "113538.401000", "113538.404000", "113538.406000", "113538.409000", "113538.411000", "113538.413000", "113538.416000", "113538.418000", "113538.421000", "113538.423000", "113538.425000", "113538.434000", "113538.436000", "113538.439000", "113538.441000", "113538.444000", "113538.446000", "113538.449000", "113538.451000", "113538.454000", "113538.457000", "113538.459000", "113538.462000", "113538.464000", "113538.466000", "113538.469000", "113538.471000", "113538.474000", "113538.476000", "113538.478000", "113538.481000", "113538.483000", "113538.486000", "113558.402000", "113558.405000", "113558.407000", "113558.409000", "113558.412000", "113558.414000", "113558.417000", "113558.419000", "113558.421000", "113558.424000", "113558.426000", "113558.429000", "113558.431000", "113558.433000", "113558.436000", "113558.438000", "113558.440000", "113558.443000", "113558.445000", "113558.447000", "113558.450000", "113558.452000", "113558.455000", "113558.457000", "113558.460000", "113558.462000", "113558.464000", "113558.467000", "113558.469000", "113558.472000", "113558.474000", "113558.476000", "113558.486000", "113618.401000", "113618.404000", "113618.406000", "113618.409000", "113618.411000", "113618.413000", "113618.416000", "113618.418000", "113618.420000", "113618.423000", "113618.425000", "113618.428000", "113618.430000", "113618.432000", "113618.435000", "113618.437000", "113618.439000", "113618.442000", "113618.444000", "113618.447000", "113618.449000", "113618.451000", "113618.454000", "113618.456000", "113618.459000", "113618.461000", "113618.463000", "113618.466000", "113618.468000", "113618.471000", "113618.473000", "113618.475000", "113618.478000", "113638.400000", "113638.403000", "113638.405000", "113638.408000", "113638.410000", "113638.412000", "113638.415000", "113638.417000", "113638.419000", "113638.422000", "113638.424000", "113638.426000", "113638.429000", "113638.431000", "113638.434000", "113638.462000", "113638.469000", "113638.472000", "113638.474000", "113638.476000", "113638.479000", "113638.481000", "113638.483000", "113638.486000", "113638.488000", "113638.490000", "113638.493000", "113638.495000", "113638.497000", "113638.500000", "113638.502000", "113638.505000", "113638.507000", "113638.971000"], "InstanceCreationTime": ["113158.407000", "113158.410000", "113158.412000", "113158.415000", "113158.417000", "113158.419000", "113158.422000", "113158.424000", "113158.426000", "113158.429000", "113158.431000", "113158.434000", "113158.436000", "113158.438000", "113158.441000", "113158.446000", "113158.449000", "113158.451000", "113158.453000", "113158.456000", "113158.458000", "113158.461000", "113158.463000", "113158.465000", "113158.468000", "113158.470000", "113158.472000", "113158.475000", "113158.477000", "113158.480000", "113158.482000", "113158.484000", "113158.489000", "113158.492000", "113158.494000", "113158.496000", "113158.499000", "113158.501000", "113158.504000", "113158.506000", "113158.508000", "113158.511000", "113158.513000", "113158.515000", "113158.518000", "113158.520000", "113158.522000", "113158.525000", "113158.527000", "113218.401000", "113218.404000", "113218.406000", "113218.408000", "113218.411000", "113218.413000", "113218.415000", "113218.418000", "113218.420000", "113218.423000", "113218.425000", "113218.427000", "113218.430000", "113218.432000", "113218.435000", "113218.437000", "113218.439000", "113218.442000", "113218.444000", "113218.446000", "113218.449000", "113218.451000", "113218.454000", "113218.456000", "113218.458000", "113218.461000", "113218.463000", "113218.465000", "113218.468000", "113218.470000", "113218.472000", "113218.475000", "113218.484000", "113238.401000", "113238.404000", "113238.406000", "113238.409000", "113238.411000", "113238.414000", "113238.416000", "113238.418000", "113238.421000", "113238.424000", "113238.426000", "113238.428000", "113238.431000", "113238.433000", "113238.436000", "113238.438000", "113238.440000", "113238.443000", "113238.445000", "113238.447000", "113238.450000", "113238.452000", "113238.454000", "113238.457000", "113238.459000", "113238.462000", "113238.464000", "113238.466000", "113238.469000", "113238.471000", "113238.473000", "113238.476000", "113238.478000", "113258.401000", "113258.404000", "113258.407000", "113258.409000", "113258.417000", "113258.420000", "113258.422000", "113258.424000", "113258.427000", "113258.429000", "113258.432000", "113258.434000", "113258.436000", "113258.439000", "113258.441000", "113258.443000", "113258.446000", "113258.448000", "113258.451000", "113258.453000", "113258.455000", "113258.458000", "113258.460000", "113258.463000", "113258.465000", "113258.467000", "113258.470000", "113258.472000", "113258.475000", "113258.477000", "113258.479000", "113258.482000", "113258.484000", "113318.401000", "113318.404000", "113318.406000", "113318.409000", "113318.411000", "113318.413000", "113318.416000", "113318.418000", "113318.420000", "113318.423000", "113318.425000", "113318.427000", "113318.430000", "113318.432000", "113318.434000", "113318.437000", "113318.439000", "113318.441000", "113318.444000", "113318.446000", "113318.449000", "113318.451000", "113318.453000", "113318.456000", "113318.458000", "113318.460000", "113318.463000", "113318.465000", "113318.468000", "113318.478000", "113318.480000", "113318.483000", "113318.485000", "113338.401000", "113338.404000", "113338.406000", "113338.409000", "113338.411000", "113338.413000", "113338.416000", "113338.418000", "113338.420000", "113338.423000", "113338.425000", "113338.428000", "113338.430000", "113338.433000", "113338.435000", "113338.438000", "113338.440000", "113338.443000", "113338.445000", "113338.447000", "113338.450000", "113338.452000", "113338.454000", "113338.457000", "113338.459000", "113338.462000", "113338.464000", "113338.466000", "113338.469000", "113338.471000", "113338.474000", "113338.476000", "113358.401000", "113358.404000", "113358.406000", "113358.409000", "113358.411000", "113358.415000", "113358.417000", "113358.419000", "113358.422000", "113358.424000", "113358.426000", "113358.429000", "113358.431000", "113358.433000", "113358.436000", "113358.438000", "113358.440000", "113358.443000", "113358.445000", "113358.447000", "113358.450000", "113358.452000", "113358.470000", "113358.473000", "113358.475000", "113358.478000", "113358.480000", "113358.483000", "113358.485000", "113358.487000", "113358.490000", "113358.492000", "113358.494000", "113418.400000", "113418.403000", "113418.405000", "113418.407000", "113418.410000", "113418.412000", "113418.414000", "113418.417000", "113418.419000", "113418.421000", "113418.424000", "113418.426000", "113418.429000", "113418.431000", "113418.433000", "113418.436000", "113418.438000", "113418.440000", "113418.443000", "113418.445000", "113418.447000", "113418.450000", "113418.452000", "113418.455000", "113418.457000", "113418.459000", "113418.461000", "113418.464000", "113418.466000", "113418.469000", "113418.471000", "113418.473000", "113418.476000", "113438.401000", "113438.404000", "113438.406000", "113438.409000", "113438.411000", "113438.413000", "113438.416000", "113438.418000", "113438.420000", "113438.423000", "113438.425000", "113438.427000", "113438.430000", "113438.432000", "113438.435000", "113438.437000", "113438.439000", "113438.442000", "113438.444000", "113438.447000", "113438.449000", "113438.451000", "113438.454000", "113438.456000", "113438.458000", "113438.461000", "113438.463000", "113438.465000", "113438.468000", "113438.470000", "113438.472000", "113438.475000", "113438.477000", "113458.401000", "113458.404000", "113458.406000", "113458.408000", "113458.411000", "113458.413000", "113458.415000", "113458.418000", "113458.420000", "113458.422000", "113458.425000", "113458.427000", "113458.430000", "113458.432000", "113458.435000", "113458.437000", "113458.439000