{"AcquisitionMatrixPE": 64, "AcquisitionNumber": 1, "AcquisitionTime": "12:32:32.727500", "BandwidthPerPixelPhaseEncode": 28.935, "BaseResolution": 64, "BodyPartExamined": "BRAIN", "CoilString": "HC2_4_6_7", "ConsistencyInfo": "N4_VE11E_LATEST_20181129", "ConversionSoftware": "dcm2niix", "ConversionSoftwareVersion": "v1.0.20190902", "DerivedVendorReportedEchoSpacing": 0.000540003, "DeviceSerialNumber": "166182", "DwellTime": 3.4e-06, "EchoTime": 0.032, "EchoTrainLength": 64, "EffectiveEchoSpacing": 0.000540003, "FlipAngle": 40, "ImageOrientationPatientDICOM": [0.985374, -0.116392, 0.124459, 0.131477, 0.983934, -0.120782], "ImageType": ["ORIGINAL", "PRIMARY", "M", "ND", "NORM", "MOSAIC"], "ImagingFrequency": 123.256, "InPlanePhaseEncodingDirectionDICOM": "COL", "InstitutionAddress": "PEARSE_STREET_._City_District_IE_D2", "InstitutionName": "TCIN", "InstitutionalDepartmentName": "MRI", "MRAcquisitionType": "2D", "MagneticFieldStrength": 3, "Manufacturer": "Siemens", "ManufacturersModelName": "Prisma", "Modality": "MR", "MultibandAccelerationFactor": 4, "PartialFourier": 1, "PatientPosition": "HFS", "PercentPhaseFOV": 100, "PhaseEncodingDirection": "j-", "PhaseEncodingSteps": 64, "PhaseResolution": 1, "PixelBandwidth": 2300, "ProcedureStepDescription": "Rhodri_Head_BOLD", "ProtocolName": "cmrr_mbep2d_Pictures_AP_RDS", "PulseSequenceDetails": "%SiemensSeq%_ep2d_bold", "ReceiveCoilActiveElements": "HC2,4,6,7", "ReceiveCoilName": "HeadNeck_64", "ReconMatrixPE": 64, "RefLinesPE": 12, "RepetitionTime": 0.61, "SAR": 0.230124, "ScanOptions": "FS", "ScanningSequence": "EP", "SequenceName": "_epfid2d1_64", "SequenceVariant": "SK", "SeriesDescription": "cmrr_mbep2d_Pictures_AP_RDS", "SeriesNumber": 16, "ShimSetting": [-3609, -7489, 3844, 827, -80, 495, 85, 20], "SliceThickness": 3, "SliceTiming": [0.2625, 0, 0.3275, 0.0675, 0.395, 0.1325, 0.46, 0.1975, 0.525, 0.2625, 0, 0.3275, 0.0675, 0.395, 0.1325, 0.46, 0.1975, 0.525, 0.2625, 0, 0.3275, 0.0675, 0.395, 0.1325, 0.46, 0.1975, 0.525, 0.2625, 0, 0.3275, 0.0675, 0.395, 0.1325, 0.46, 0.1975, 0.525], "SoftwareVersions": "syngo_MR_E11", "SpacingBetweenSlices": 3.3, "StationName": "AWP166182", "TaskName": "pictures", "TotalReadoutTime": 0.0340202, "TxRefAmp": 260.06, "dcmmeta_affine": [[-2.9561233520507812, 0.39443114399909973, 0.35772573947906494, 80.80198669433594], [0.3491749167442322, 2.951801061630249, -0.44675129652023315, -102.72918701171875], [0.37337812781333923, 0.3623464107513428, 3.2499914169311523, -123.92726135253906], [0.0, 0.0, 0.0, 1.0]], "dcmmeta_reorient_transform": [[0.0, -1.0, 0.0, 63.0], [1.0, 0.0, 0.0, 0.0], [0.0, 0.0, 1.0, 0.0], [0.0, 0.0, 0.0, 1.0]], "dcmmeta_shape": [64, 64, 36, 452], "dcmmeta_slice_dim": 2, "dcmmeta_version": 0.6, "global": {"const": {"AcquisitionMatrix": [64, 0, 0, 64], "AngioFlag": "N", "BitsAllocated": 16, "BitsStored": 12, "BodyPartExamined": "BRAIN", "Columns": 384, "EchoNumbers": 1, "EchoTime": 32.0, "EchoTrainLength": 64, "FlipAngle": 40.0, "HighBit": 11, "ImageOrientationPatient": [0.98537447174513, -0.1163916398609, 0.12445937732247, 0.13147704419903, 0.98393366723398, -0.1207821399553], "ImagePositionPatient": [-641.73987798711, -499.65445026392, -102.86451053746], "ImageType": ["ORIGINAL", "PRIMARY", "M", "ND", "NORM", "MOSAIC"], "ImagedNucleus": "1H", "ImagingFrequency": 123.256246, "InPlanePhaseEncodingDirection": "COL", "MRAcquisitionType": "2D", "MagneticFieldStrength": 3.0, "Manufacturer": "SIEMENS", "ManufacturerModelName": "Prisma", "Modality": "MR", "NumberOfAverages": 1.0, "NumberOfPhaseEncodingSteps": 64, "PercentPhaseFieldOfView": 100.0, "PercentSampling": 100.0, "PerformedProcedureStepStartTime": "114404.887000", "PhotometricInterpretation": "MONOCHROME2", "PixelBandwidth": 2300.0, "PixelRepresentation": 0, "PixelSpacing": [3.0, 3.0], "ProtocolName": "cmrr_mbep2d_Pictures_AP_RDS", "RepetitionTime": 610.0, "Rows": 384, "SAR": 0.23012383893307, "SamplesPerPixel": 1, "ScanOptions": "FS", "ScanningSequence": "EP", "SequenceName": "*epfid2d1_64", "SequenceVariant": "SK", "SeriesDescription": "cmrr_mbep2d_Pictures_AP_RDS", "SeriesNumber": 16, "SeriesTime": "123302.738000", "SliceLocation": -99.382790649059, "SliceThickness": 3.0, "SmallestImagePixelValue": 0, "SoftwareVersions": "syngo MR E11", "SpacingBetweenSlices": 3.2999998962591, "SpecificCharacterSet": "ISO_IR 100", "StudyID": "1", "StudyTime": "114404.669000", "TransmitCoilName": "Body", "VariableFlipAngleFlag": "N", "WindowCenterWidthExplanation": "Algo1"}, "slices": {}}, "time": {"samples": {"AcquisitionNumber": [1, 2, 3, 4, 5, 6, 7, 8, 9, 10, 11, 12, 13, 14, 15, 16, 17, 18, 19, 20, 21, 22, 23, 24, 25, 26, 27, 28, 29, 30, 31, 32, 33, 34, 35, 36, 37, 38, 39, 40, 41, 42, 43, 44, 45, 46, 47, 48, 49, 50, 51, 52, 53, 54, 55, 56, 57, 58, 59, 60, 61, 62, 63, 64, 65, 66, 67, 68, 69, 70, 71, 72, 73, 74, 75, 76, 77, 78, 79, 80, 81, 82, 83, 84, 85, 86, 87, 88, 89, 90, 91, 92, 93, 94, 95, 96, 97, 98, 99, 100, 101, 102, 103, 104, 105, 106, 107, 108, 109, 110, 111, 112, 113, 114, 115, 116, 117, 118, 119, 120, 121, 122, 123, 124, 125, 126, 127, 128, 129, 130, 131, 132, 133, 134, 135, 136, 137, 138, 139, 140, 141, 142, 143, 144, 145, 146, 147, 148, 149, 150, 151, 152, 153, 154, 155, 156, 157, 158, 159, 160, 161, 162, 163, 164, 165, 166, 167, 168, 169, 170, 171, 172, 173, 174, 175, 176, 177, 178, 179, 180, 181, 182, 183, 184, 185, 186, 187, 188, 189, 190, 191, 192, 193, 194, 195, 196, 197, 198, 199, 200, 201, 202, 203, 204, 205, 206, 207, 208, 209, 210, 211, 212, 213, 214, 215, 216, 217, 218, 219, 220, 221, 222, 223, 224, 225, 226, 227, 228, 229, 230, 231, 232, 233, 234, 235, 236, 237, 238, 239, 240, 241, 242, 243, 244, 245, 246, 247, 248, 249, 250, 251, 252, 253, 254, 255, 256, 257, 258, 259, 260, 261, 262, 263, 264, 265, 266, 267, 268, 269, 270, 271, 272, 273, 274, 275, 276, 277, 278, 279, 280, 281, 282, 283, 284, 285, 286, 287, 288, 289, 290, 291, 292, 293, 294, 295, 296, 297, 298, 299, 300, 301, 302, 303, 304, 305, 306, 307, 308, 309, 310, 311, 312, 313, 314, 315, 316, 317, 318, 319, 320, 321, 322, 323, 324, 325, 326, 327, 328, 329, 330, 331, 332, 333, 334, 335, 336, 337, 338, 339, 340, 341, 342, 343, 344, 345, 346, 347, 348, 349, 350, 351, 352, 353, 354, 355, 356, 357, 358, 359, 360, 361, 362, 363, 364, 365, 366, 367, 368, 369, 370, 371, 372, 373, 374, 375, 376, 377, 378, 379, 380, 381, 382, 383, 384, 385, 386, 387, 388, 389, 390, 391, 392, 393, 394, 395, 396, 397, 398, 399, 400, 401, 402, 403, 404, 405, 406, 407, 408, 409, 410, 411, 412, 413, 414, 415, 416, 417, 418, 419, 420, 421, 422, 423, 424, 425, 426, 427, 428, 429, 430, 431, 432, 433, 434, 435, 436, 437, 438, 439, 440, 441, 442, 443, 444, 445, 446, 447, 448, 449, 450, 451, 452], "AcquisitionTime": ["123232.727500", "123233.337500", "123233.947500", "123234.557500", "123235.167500", "123235.777500", "123236.387500", "123236.997500", "123237.607500", "123238.217500", "123238.827500", "123239.437500", "123240.047500", "123240.657500", "123241.267500", "123241.877500", "123242.487500", "123243.097500", "123243.707500", "123244.317500", "123244.927500", "123245.537500", "123246.147500", "123246.757500", "123247.367500", "123247.977500", "123248.587500", "123249.197500", "123249.807500", "123250.417500", "123251.027500", "123251.637500", "123252.247500", "123252.857500", "123253.467500", "123254.077500", "123254.687500", "123255.297500", "123255.907500", "123256.517500", "123257.127500", "123257.737500", "123258.347500", "123258.957500", "123259.567500", "123300.177500", "123300.787500", "123301.397500", "123302.007500", "123302.617500", "123303.227500", "123303.837500", "123304.447500", "123305.057500", "123305.667500", "123306.277500", "123306.887500", "123307.497500", "123308.107500", "123308.717500", "123309.327500", "123309.937500", "123310.547500", "123311.157500", "123311.767500", "123312.377500", "123312.987500", "123313.597500", "123314.207500", "123314.817500", "123315.427500", "123316.037500", "123316.647500", "123317.257500", "123317.867500", "123318.477500", "123319.087500", "123319.697500", "123320.307500", "123320.917500", "123321.527500", "123322.137500", "123322.747500", "123323.357500", "123323.967500", "123324.577500", "123325.187500", "123325.797500", "123326.407500", "123327.017500", "123327.627500", "123328.237500", "123328.847500", "123329.457500", "123330.067500", "123330.677500", "123331.287500", "123331.897500", "123332.507500", "123333.117500", "123333.727500", "123334.337500", "123334.947500", "123335.557500", "123336.167500", "123336.777500", "123337.387500", "123337.997500", "123338.607500", "123339.217500", "123339.827500", "123340.437500", "123341.047500", "123341.657500", "123342.267500", "123342.877500", "123343.487500", "123344.097500", "123344.707500", "123345.317500", "123345.927500", "123346.537500", "123347.147500", "123347.757500", "123348.367500", "123348.977500", "123349.587500", "123350.197500", "123350.807500", "123351.417500", "123352.027500", "123352.637500", "123353.247500", "123353.857500", "123354.467500", "123355.077500", "123355.687500", "123356.297500", "123356.907500", "123357.517500", "123358.127500", "123358.737500", "123359.347500", "123359.957500", "123400.567500", "123401.177500", "123401.787500", "123402.397500", "123403.007500", "123403.617500", "123404.227500", "123404.837500", "123405.447500", "123406.057500", "123406.667500", "123407.277500", "123407.887500", "123408.497500", "123409.107500", "123409.717500", "123410.327500", "123410.937500", "123411.547500", "123412.157500", "123412.767500", "123413.377500", "123413.987500", "123414.597500", "123415.207500", "123415.817500", "123416.427500", "123417.037500", "123417.647500", "123418.257500", "123418.867500", "123419.477500", "123420.087500", "123420.697500", "123421.307500", "123421.917500", "123422.527500", "123423.137500", "123423.747500", "123424.357500", "123424.967500", "123425.577500", "123426.187500", "123426.797500", "123427.407500", "123428.017500", "123428.627500", "123429.237500", "123429.847500", "123430.457500", "123431.067500", "123431.677500", "123432.287500", "123432.897500", "123433.507500", "123434.117500", "123434.727500", "123435.337500", "123435.947500", "123436.557500", "123437.167500", "123437.777500", "123438.387500", "123438.997500", "123439.607500", "123440.217500", "123440.827500", "123441.437500", "123442.047500", "123442.657500", "123443.267500", "123443.877500", "123444.487500", "123445.097500", "123445.707500", "123446.317500", "123446.927500", "123447.537500", "123448.147500", "123448.757500", "123449.367500", "123449.977500", "123450.587500", "123451.197500", "123451.807500", "123452.417500", "123453.027500", "123453.637500", "123454.247500", "123454.857500", "123455.467500", "123456.077500", "123456.687500", "123457.297500", "123457.907500", "123458.517500", "123459.127500", "123459.737500", "123500.347500", "123500.957500", "123501.567500", "123502.177500", "123502.787500", "123503.397500", "123504.007500", "123504.617500", "123505.227500", "123505.837500", "123506.447500", "123507.057500", "123507.667500", "123508.277500", "123508.887500", "123509.497500", "123510.107500", "123510.717500", "123511.327500", "123511.937500", "123512.547500", "123513.157500", "123513.767500", "123514.377500", "123514.987500", "123515.597500", "123516.207500", "123516.817500", "123517.427500", "123518.037500", "123518.647500", "123519.257500", "123519.867500", "123520.477500", "123521.087500", "123521.697500", "123522.307500", "123522.917500", "123523.527500", "123524.137500", "123524.747500", "123525.357500", "123525.967500", "123526.577500", "123527.187500", "123527.797500", "123528.407500", "123529.017500", "123529.627500", "123530.237500", "123530.847500", "123531.457500", "123532.067500", "123532.677500", "123533.287500", "123533.897500", "123534.507500", "123535.117500", "123535.727500", "123536.337500", "123536.947500", "123537.557500", "123538.167500", "123538.777500", "123539.387500", "123539.997500", "123540.607500", "123541.217500", "123541.827500", "123542.437500", "123543.047500", "123543.657500", "123544.267500", "123544.877500", "123545.487500", "123546.097500", "123546.707500", "123547.317500", "123547.927500", "123548.537500", "123549.147500", "123549.757500", "123550.367500", "123550.977500", "123551.587500", "123552.197500", "123552.807500", "123553.417500", "123554.027500", "123554.637500", "123555.247500", "123555.857500", "123556.467500", "123557.077500", "123557.687500", "123558.297500", "123558.907500", "123559.517500", "123600.127500", "123600.737500", "123601.347500", "123601.957500", "123602.567500", "123603.177500", "123603.787500", "123604.397500", "123605.007500", "123605.617500", "123606.227500", "123606.837500", "123607.447500", "123608.057500", "123608.667500", "123609.277500", "123609.887500", "123610.497500", "123611.107500", "123611.717500", "123612.327500", "123612.937500", "123613.547500", "123614.157500", "123614.767500", "123615.377500", "123615.987500", "123616.597500", "123617.207500", "123617.817500", "123618.427500", "123619.037500", "123619.647500", "123620.257500", "123620.867500", "123621.477500", "123622.087500", "123622.697500", "123623.307500", "123623.917500", "123624.527500", "123625.137500", "123625.747500", "123626.357500", "123626.967500", "123627.577500", "123628.187500", "123628.797500", "123629.407500", "123630.017500", "123630.627500", "123631.237500", "123631.847500", "123632.457500", "123633.067500", "123633.677500", "123634.287500", "123634.897500", "123635.507500", "123636.117500", "123636.727500", "123637.337500", "123637.947500", "123638.557500", "123639.167500", "123639.777500", "123640.387500", "123640.997500", "123641.607500", "123642.217500", "123642.827500", "123643.437500", "123644.047500", "123644.657500", "123645.267500", "123645.877500", "123646.487500", "123647.097500", "123647.707500", "123648.317500", "123648.927500", "123649.537500", "123650.147500", "123650.757500", "123651.367500", "123651.977500", "123652.587500", "123653.197500", "123653.807500", "123654.417500", "123655.027500", "123655.637500", "123656.247500", "123656.857500", "123657.467500", "123658.077500", "123658.687500", "123659.297500", "123659.907500", "123700.517500", "123701.127500", "123701.737500", "123702.347500", "123702.957500", "123703.567500", "123704.177500", "123704.787500", "123705.397500", "123706.007500", "123706.617500", "123707.227500", "123707.837500"], "ContentTime": ["123302.741000", "123302.744000", "123302.747000", "123302.749000", "123302.751000", "123302.754000", "123302.756000", "123302.758000", "123302.764000", "123302.766000", "123302.768000", "123302.771000", "123302.773000", "123302.775000", "123302.778000", "123302.780000", "123302.783000", "123302.785000", "123302.787000", "123302.790000", "123302.792000", "123302.795000", "123302.797000", "123302.799000", "123302.802000", "123302.804000", "123302.806000", "123302.809000", "123302.811000", "123302.814000", "123302.816000", "123302.818000", "123302.821000", "123302.826000", "123302.829000", "123302.831000", "123302.833000", "123302.836000", "123302.838000", "123302.841000", "123302.843000", "123302.845000", "123302.848000", "123302.850000", "123302.853000", "123302.855000", "123302.857000", "123302.860000", "123302.862000", "123322.736000", "123322.739000", "123322.741000", "123322.744000", "123322.746000", "123322.749000", "123322.751000", "123322.753000", "123322.756000", "123322.758000", "123322.760000", "123322.763000", "123322.765000", "123322.768000", "123322.771000", "123322.773000", "123322.775000", "123322.778000", "123322.780000", "123322.783000", "123322.785000", "123322.788000", "123322.790000", "123322.792000", "123322.795000", "123322.797000", "123322.799000", "123322.802000", "123322.804000", "123322.807000", "123322.809000", "123322.811000", "123322.814000", "123342.736000", "123342.739000", "123342.741000", "123342.744000", "123342.746000", "123342.749000", "123342.751000", "123342.753000", "123342.756000", "123342.758000", "123342.760000", "123342.763000", "123342.765000", "123342.768000", "123342.770000", "123342.772000", "123342.775000", "123342.777000", "123342.780000", "123342.782000", "123342.784000", "123342.787000", "123342.789000", "123342.792000", "123342.794000", "123342.796000", "123342.799000", "123342.801000", "123342.803000", "123342.806000", "123342.808000", "123342.810000", "123402.735000", "123402.738000", "123402.740000", "123402.743000", "123402.745000", "123402.747000", "123402.750000", "123402.752000", "123402.755000", "123402.757000", "123402.759000", "123402.762000", "123402.764000", "123402.766000", "123402.769000", "123402.771000", "123402.773000", "123402.776000", "123402.778000", "123402.781000", "123402.783000", "123402.785000", "123402.788000", "123402.790000", "123402.793000", "123402.795000", "123402.805000", "123402.807000", "123402.809000", "123402.812000", "123402.814000", "123402.816000", "123402.820000", "123422.735000", "123422.738000", "123422.740000", "123422.743000", "123422.745000", "123422.748000", "123422.750000", "123422.752000", "123422.755000", "123422.757000", "123422.759000", "123422.762000", "123422.764000", "123422.766000", "123422.769000", "123422.771000", "123422.774000", "123422.776000", "123422.778000", "123422.781000", "123422.783000", "123422.786000", "123422.788000", "123422.834000", "123422.836000", "123422.839000", "123422.841000", "123422.843000", "123422.846000", "123422.848000", "123422.851000", "123422.853000", "123422.856000", "123442.735000", "123442.738000", "123442.740000", "123442.742000", "123442.745000", "123442.747000", "123442.750000", "123442.752000", "123442.754000", "123442.757000", "123442.759000", "123442.761000", "123442.764000", "123442.766000", "123442.769000", "123442.771000", "123442.773000", "123442.776000", "123442.779000", "123442.781000", "123442.784000", "123442.786000", "123442.788000", "123442.791000", "123442.793000", "123442.795000", "123442.798000", "123442.800000", "123442.803000", "123442.805000", "123442.808000", "123442.810000", "123442.812000", "123502.736000", "123502.739000", "123502.742000", "123502.744000", "123502.747000", "123502.749000", "123502.751000", "123502.754000", "123502.756000", "123502.758000", "123502.761000", "123502.763000", "123502.765000", "123502.768000", "123502.770000", "123502.772000", "123502.775000", "123502.777000", "123502.780000", "123502.782000", "123502.784000", "123502.787000", "123502.789000", "123502.791000", "123502.794000", "123502.796000", "123502.798000", "123502.801000", "123502.803000", "123502.806000", "123502.808000", "123502.810000", "123522.736000", "123522.739000", "123522.741000", "123522.744000", "123522.746000", "123522.748000", "123522.751000", "123522.753000", "123522.755000", "123522.758000", "123522.760000", "123522.762000", "123522.765000", "123522.767000", "123522.769000", "123522.772000", "123522.774000", "123522.776000", "123522.779000", "123522.781000", "123522.784000", "123522.786000", "123522.788000", "123522.791000", "123522.793000", "123522.796000", "123522.798000", "123522.801000", "123522.804000", "123522.806000", "123522.809000", "123522.811000", "123522.813000", "123542.736000", "123542.739000", "123542.741000", "123542.744000", "123542.746000", "123542.748000", "123542.751000", "123542.753000", "123542.755000", "123542.758000", "123542.765000", "123542.767000", "123542.770000", "123542.772000", "123542.775000", "123542.777000", "123542.779000", "123542.782000", "123542.784000", "123542.786000", "123542.789000", "123542.791000", "123542.794000", "123542.796000", "123542.799000", "123542.801000", "123542.803000", "123542.806000", "123542.808000", "123542.810000", "123542.813000", "123542.815000", "123542.818000", "123602.736000", "123602.739000", "123602.741000", "123602.744000", "123602.746000", "123602.748000", "123602.751000", "123602.753000", "123602.756000", "123602.758000", "123602.760000", "123602.763000", "123602.765000", "123602.767000", "123602.770000", "123602.772000", "123602.775000", "123602.777000", "123602.779000", "123602.782000", "123602.784000", "123602.786000", "123602.789000", "123602.791000", "123602.793000", "123602.796000", "123602.798000", "123602.801000", "123602.803000", "123602.805000", "123602.808000", "123602.810000", "123602.812000", "123622.735000", "123622.738000", "123622.740000", "123622.743000", "123622.745000", "123622.747000", "123622.750000", "123622.752000", "123622.755000", "123622.757000", "123622.759000", "123622.762000", "123622.764000", "123622.767000", "123622.769000", "123622.771000", "123622.774000", "123622.776000", "123622.779000", "123622.781000", "123622.784000", "123622.786000", "123622.788000", "123622.791000", "123622.793000", "123622.795000", "123622.798000", "123622.800000", "123622.803000", "123622.805000", "123622.807000", "123622.810000", "123622.812000", "123642.735000", "123642.738000", "123642.740000", "123642.743000", "123642.745000", "123642.747000", "123642.750000", "123642.752000", "123642.755000", "123642.757000", "123642.759000", "123642.762000", "123642.764000", "123642.766000", "123642.769000", "123642.771000", "123642.773000", "123642.776000", "123642.778000", "123642.781000", "123642.783000", "123642.786000", "123642.788000", "123642.790000", "123642.793000", "123642.795000", "123642.798000", "123642.800000", "123642.802000", "123642.805000", "123642.807000", "123642.810000", "123702.735000", "123702.738000", "123702.740000", "123702.743000", "123702.745000", "123702.748000", "123702.750000", "123702.766000", "123702.769000", "123702.771000", "123702.774000", "123702.776000", "123702.779000", "123702.781000", "123702.783000", "123702.786000", "123702.788000", "123702.791000", "123702.793000", "123702.795000", "123702.798000", "123702.800000", "123702.802000", "123702.805000", "123702.807000", "123702.810000", "123702.812000", "123702.815000", "123702.817000", "123702.819000", "123702.822000", "123702.824000", "123702.827000", "123709.176000", "123709.180000", "123709.182000", "123709.184000", "123709.187000", "123709.190000", "123709.192000", "123709.195000", "123709.197000", "123709.199000"], "InstanceCreationTime": ["123302.741000", "123302.744000", "123302.747000", "123302.749000", "123302.751000", "123302.754000", "123302.756000", "123302.758000", "123302.764000", "123302.766000", "123302.768000", "123302.771000", "123302.773000", "123302.775000", "123302.778000", "123302.780000", "123302.783000", "123302.785000", "123302.787000", "123302.790000", "123302.792000", "123302.795000", "123302.797000", "123302.799000", "123302.802000", "123302.804000", "123302.806000", "123302.809000", "123302.811000", "123302.814000", "123302.816000", "123302.818000", "123302.821000", "123302.826000", "123302.829000", "123302.831000", "123302.833000", "123302.836000", "123302.838000", "123302.841000", "123302.843000", "123302.845000", "123302.848000", "123302.850000", "123302.853000", "123302.855000", "123302.857000", "123302.860000", "123302.862000", "123322.736000", "123322.739000", "123322.741000", "123322.744000", "123322.746000", "123322.749000", "123322.751000", "123322.753000", "123322.756000", "123322.758000", "123322.760000", "123322.763000", "123322.765000", "123322.768000", "123322.771000", "123322.773000", "123322.775000", "123322.778000", "123322.780000", "123322.783000", "123322.785000", "123322.788000", "123322.790000", "123322.792000", "123322.795000", "123322.797000", "123322.799000", "123322.802000", "123322.804000", "123322.807000", "123322.809000", "123322.811000", "123322.814000", "123342.736000", "123342.739000", "123342.741000", "123342.744000", "123342.746000", "123342.749000", "123342.751000", "123342.753000", "123342.756000", "123342.758000", "123342.760000", "123342.763000", "123342.765000", "123342.768000", "123342.770000", "123342.772000", "123342.775000", "123342.777000", "123342.780000", "123342.782000", "123342.784000", "123342.787000", "123342.789000", "123342.792000", "123342.794000", "123342.796000", "123342.799000", "123342.801000", "123342.803000", "123342.806000", "123342.808000", "123342.810000", "123402.735000", "123402.738000", "123402.740000", "123402.743000", "123402.745000", "123402.747000", "123402.750000", "123402.752000", "123402.755000", "123402.757000", "123402.759000", "123402.762000", "123402.764000", "123402.766000", "123402.769000", "123402.771000", "123402.773000", "123402.776000", "123402.778000", "123402.781000", "123402.783000", "123402.785000", "123402.788000", "123402.790000", "123402.793000", "123402.795000", "123402.805000", "123402.807000", "123402.809000", "123402.812000", "123402.814000", "123402.816000", "123402.820000", "123422.735000", "123422.738000", "123422.740000", "123422.743000", "123422.745000", "123422.748000", "123422.750000", "123422.752000", "123422.755000", "123422.757000", "123422.759000", "123422.762000", "123422.764000", "123422.766000", "123422.769000", "123422.771000", "123422.774000", "123422.776000", "123422.778000", "123422.781000", "123422.783000", "123422.786000", "123422.788000", "123422.834000", "123422.836000", "123422.839000", "123422.841000", "123422.843000", "123422.846000", "123422.848000", "123422.851000", "123422.853000", "123422.856000", "123442.735000", "123442.738000", "123442.740000", "123442.742000", "123442.745000", "123442.747000", "123442.750000", "123442.752000", "123442.754000", "123442.757000", "123442.759000", "123442.761000", "123442.764000", "123442.766000", "123442.769000", "123442.771000", "123442.773000", "123442.776000", "123442.779000", "123442.781000", "123442.784000", "123442.786000", "123442.788000", "123442.791000", "123442.793000", "123442.795000", "123442.798000", "123442.800000", "123442.803000", "123442.805000", "123442.808000", "123442.810000", "123442.812000", "123502.736000", "123502.739000", "123502.742000", "123502.744000", "123502.747000", "123502.749000", "123502.751000", "123502.754000", "123502.756000", "123502.758000", "123502.761000", "123502.763000", "123502.765000", "123502.768000", "123502.770000", "123502.772000", "123502.775000", "123502.777000", "123502.780000", "123502.782000", "123502.784000", "123502.787000", "123502.789000", "123502.791000", "123502.794000", "123502.796000", "123502.798000", "123502.801000", "123502.803000", "123502.806000", "123502.808000", "123502.810000", "123522.736000", "123522.739000", "123522.741000", "123522.744000", "123522.746000", "123522.748000", "123522.751000", "123522.753000", "123522.755000", "123522.758000", "123522.760000", "123522.762000", "123522.765000", "123522.767000", "123522.769000", "123522.772000", "123522.774000", "123522.776000", "123522.779000", "123522.781000", "123522.784000", "123522.786000", "123522.788000", "123522.791000", "123522.793000", "123522.796000", "123522.798000", "123522.801000", "123522.804000", "123522.806000", "123522.809000", "123522.811000", "123522.813000", "123542.736000", "123542.739000", "123542.741000", "123542.744000", "123542.746000", "123542.748000", "123542.751000", "123542.753000", "123542.755000", "123542.758000", "123542.765000", "123542.767000", "123542.770000", "123542.772000", "123542.775000", "123542.777000", "123542.779000", "123542.782000", "123542.784000", "123542.786000", "123542.789000", "123542.791000", "123542.794000", "123542.796000", "123542.799000", "123542.801000", "123542.803000", "123542.806000", "123542.808000", "123542.810000", "123542.813000", "123542.815000", "123542.818000", "123602.736000", "123602.739000", "123602.741000", "123602.744000", "123602.746000", "123602.748000", "123602.751000", "123602.753000", "123602.756000", "123602.758000", "123602.760000", "123602.763000", "123602.765000", "123602.767000", "123602.770000", "123602.772000", "123602.775000", "123602.777000", "123602.779000", "123602.782000", "123602.784000", "123602.786000", "123602.789000", "123602.791000", "123602.793000", "123602.796000", "123602.798000", "123602.801000", "123602.803000", "123602.805000", "123602.808000", "123602.810000", "123602.812000", "123622.735000", "123622.738000", "123622.740000", "123622.743000", "123622.745000", "123622.747000", "123622.750000", "123622.752000", "123622.755000", "123622.757000", "123622.759000", "123622.762000", "123622.764000", "123622.767000", "123622.769000", "123622.771000", "123622.774000", "123622.776000", "123622.779000", "123622.781000", "123622.784000", "123622.786000", "123622.788000", "123622.791000", "123622.793000", "123622.795000", "123622.798000", "123622.800000", "123622.803000", "123622.805000", "123622.807000", "123622.810000", "123622.812000", "123642.735000", "123642.738000", "123642.740000", "123642.743000", "123642.745000", "123642.747000", "123642.750000", "123642.752000", "123642.755000", "123642.757000", "123642.759000", "123642.762000", "123642.764000", "123642.766000", "123642.769000", "123642.771000", "123642.773000", "123642.776000", "123642.778000", "123642.781000", "123642.783000", "123642.786000", "123642.788000", "123642.790000", "123642.793000", "123642.795000", "123642.798000", "123642.800000", "123642.802000", "123642.805000", "123642.807000", "123642.810000", "123702.735000", "123702.738000", "123702.740000", "123702.743000", "123702.745000", "123702.748000", "123702.750000", "123702.766000", "123702.769000", "123702.771000", "123702.774000", "123702.776000", "123702.779000", "123702.781000", "123702.783000", "123702.786000", "123702.788000", "123702.791000", "123702.793000", "123702.795000", "123702.798000", "123702.800000", "123702.802000", "123702.805000", "123702.807000", "123702.810000", "123702.812000", "123702.815000", "123702.817000", "123702.819000", "123702.822000", "123702.824000", "123702.827000", "123709.176000", "123709.180000", "123709.182000", "123709.184000", "123709.187000", "123709.190000", "123709.192000", "123709.195000", "123709.197000", "123709.199000"], "InstanceNumber": [1, 2, 3, 4, 5, 6, 7, 8, 9, 10, 11, 12, 13, 14, 15, 16, 17, 18, 19, 20, 21, 22, 23, 24, 25, 26, 27, 28, 29, 30, 31, 32, 33, 34, 35, 36, 37, 38, 39, 40, 41, 42, 43, 44