{"AcquisitionMatrixPE": 64, "AcquisitionNumber": 1, "AcquisitionTime": "10:11:41.707500", "BandwidthPerPixelPhaseEncode": 28.935, "BaseResolution": 64, "BodyPartExamined": "BRAIN", "CoilCombinationMethod": "Sum of Squares", "ConsistencyInfo": "N4_VE11E_LATEST_20181129", "ConversionSoftware": "dcm2niix", "ConversionSoftwareVersion": "v1.0.20230411", "DerivedVendorReportedEchoSpacing": 0.000540003, "DeviceSerialNumber": "166182", "DwellTime": 3.4e-06, "EchoTime": 0.032, "EchoTrainLength": 64, "EffectiveEchoSpacing": 0.000540003, "FlipAngle": 40, "HeudiconvVersion": "0.13.1", "ImageOrientationPatientDICOM": [0.999503, -0.0312131, 0.00447504, 0.0314106, 0.998023, -0.0544363], "ImageOrientationText": "Tra>Cor(-3.1)>Sag(0.2)", "ImageType": ["ORIGINAL", "PRIMARY", "M", "ND", "NORM", "MOSAIC"], "ImagingFrequency": 123.256088, "InPlanePhaseEncodingDirectionDICOM": "COL", "InstitutionAddress": "PEARSE STREET .,City,District,IE,D2", "InstitutionName": "TCIN", "InstitutionalDepartmentName": "MRI", "MRAcquisitionType": "2D", "MagneticFieldStrength": 3, "Manufacturer": "Siemens", "ManufacturersModelName": "Prisma", "Modality": "MR", "MultibandAccelerationFactor": 4, "NonlinearGradientCorrection": false, "PartialFourier": 1, "PatientPosition": "HFS", "PercentPhaseFOV": 100, "PercentSampling": 100, "PhaseEncodingDirection": "j-", "PhaseEncodingSteps": 64, "PhaseResolution": 1, "PixelBandwidth": 2300, "ProcedureStepDescription": "Rhodri^Head BOLD", "ProtocolName": "cmrr_mbep2d_Pictures_AP_RDS", "PulseSequenceDetails": "%SiemensSeq%\\ep2d_bold", "ReceiveCoilActiveElements": "HC2,4,6,7;SC", "ReceiveCoilName": "SpecialPurpose_4", "ReconMatrixPE": 64, "RefLinesPE": 12, "RepetitionTime": 0.61, "SAR": 0.280483, "ScanOptions": "FS", "ScanningSequence": "EP", "SequenceName": "*epfid2d1_64", "SequenceVariant": "SK", "SeriesDescription": "cmrr_mbep2d_Pictures_AP_RDS", "SeriesNumber": 10, "ShimSetting": [-3600, -7499, 3972, 646, -95, 437, 432, -141], "SliceThickness": 3, "SliceTiming": [0.26, 0, 0.3275, 0.065, 0.3925, 0.13, 0.4575, 0.195, 0.5225, 0.26, 0, 0.3275, 0.065, 0.3925, 0.13, 0.4575, 0.195, 0.5225, 0.26, 0, 0.3275, 0.065, 0.3925, 0.13, 0.4575, 0.195, 0.5225, 0.26, 0, 0.3275, 0.065, 0.3925, 0.13, 0.4575, 0.195, 0.5225], "SoftwareVersions": "syngo MR E11", "SpacingBetweenSlices": 3.3, "StationName": "AWP166182", "TaskName": "pictures", "TotalReadoutTime": 0.0340202, "TxRefAmp": 236.994, "dcmmeta_affine": [[-2.9985082149505615, 0.09423191100358963, 0.009131330996751785, 94.9970932006836], [0.09363935142755508, 2.9940693378448486, -0.18001434206962585, -102.75765991210938], [0.013425130397081375, 0.16330891847610474, 3.2950737476348877, -94.49756622314453], [0.0, 0.0, 0.0, 1.0]], "dcmmeta_reorient_transform": [[0.0, -1.0, 0.0, 63.0], [1.0, 0.0, 0.0, 0.0], [0.0, 0.0, 1.0, 0.0], [0.0, 0.0, 0.0, 1.0]], "dcmmeta_shape": [64, 64, 36, 510], "dcmmeta_slice_dim": 2, "dcmmeta_version": 0.6, "global": {"const": {"AcquisitionMatrix": [64, 0, 0, 64], "AngioFlag": "N", "BitsAllocated": 16, "BitsStored": 12, "BodyPartExamined": "BRAIN", "Columns": 384, "EchoNumbers": 1, "EchoTime": 32.0, "EchoTrainLength": 64, "FlipAngle": 40.0, "HighBit": 11, "ImageOrientationPatient": [0.99950273398411, -0.0312131181441, 0.00447504346586, 0.03141063646118, 0.99802307618667, -0.0544363051281], "ImagePositionPatient": [-595.77212410636, -549.93748416244, -60.22769963511], "ImageType": ["ORIGINAL", "PRIMARY", "M", "ND", "NORM", "MOSAIC"], "ImagedNucleus": "1H", "ImagingFrequency": 123.256088, "InPlanePhaseEncodingDirection": "COL", "MRAcquisitionType": "2D", "MagneticFieldStrength": 3.0, "Manufacturer": "SIEMENS", "ManufacturerModelName": "Prisma", "Modality": "MR", "NumberOfAverages": 1.0, "NumberOfPhaseEncodingSteps": 64, "PercentPhaseFieldOfView": 100.0, "PercentSampling": 100.0, "PerformedProcedureStepStartTime": "093558.850000", "PhotometricInterpretation": "MONOCHROME2", "PixelBandwidth": 2300.0, "PixelRepresentation": 0, "PixelSpacing": [3.0, 3.0], "ProtocolName": "cmrr_mbep2d_Pictures_AP_RDS", "RepetitionTime": 610.0, "Rows": 384, "SAR": 0.28048279228382, "SamplesPerPixel": 1, "ScanOptions": "FS", "ScanningSequence": "EP", "SequenceName": "*epfid2d1_64", "SequenceVariant": "SK", "SeriesDescription": "cmrr_mbep2d_Pictures_AP_RDS", "SeriesNumber": 10, "SeriesTime": "101156.708000", "SliceLocation": -88.488229336728, "SliceThickness": 3.0, "SmallestImagePixelValue": 0, "SoftwareVersions": "syngo MR E11", "SpacingBetweenSlices": 3.3000000475057, "SpecificCharacterSet": "ISO_IR 100", "StudyID": "1", "StudyTime": "093558.730000", "TransmitCoilName": "Body", "VariableFlipAngleFlag": "N", "WindowCenterWidthExplanation": "Algo1"}, "slices": {}}, "time": {"samples": {"AcquisitionNumber": [1, 2, 3, 4, 5, 6, 7, 8, 9, 10, 11, 12, 13, 14, 15, 16, 17, 18, 19, 20, 21, 22, 23, 24, 25, 26, 27, 28, 29, 30, 31, 32, 33, 34, 35, 36, 37, 38, 39, 40, 41, 42, 43, 44, 45, 46, 47, 48, 49, 50, 51, 52, 53, 54, 55, 56, 57, 58, 59, 60, 61, 62, 63, 64, 65, 66, 67, 68, 69, 70, 71, 72, 73, 74, 75, 76, 77, 78, 79, 80, 81, 82, 83, 84, 85, 86, 87, 88, 89, 90, 91, 92, 93, 94, 95, 96, 97, 98, 99, 100, 101, 102, 103, 104, 105, 106, 107, 108, 109, 110, 111, 112, 113, 114, 115, 116, 117, 118, 119, 120, 121, 122, 123, 124, 125, 126, 127, 128, 129, 130, 131, 132, 133, 134, 135, 136, 137, 138, 139, 140, 141, 142, 143, 144, 145, 146, 147, 148, 149, 150, 151, 152, 153, 154, 155, 156, 157, 158, 159, 160, 161, 162, 163, 164, 165, 166, 167, 168, 169, 170, 171, 172, 173, 174, 175, 176, 177, 178, 179, 180, 181, 182, 183, 184, 185, 186, 187, 188, 189, 190, 191, 192, 193, 194, 195, 196, 197, 198, 199, 200, 201, 202, 203, 204, 205, 206, 207, 208, 209, 210, 211, 212, 213, 214, 215, 216, 217, 218, 219, 220, 221, 222, 223, 224, 225, 226, 227, 228, 229, 230, 231, 232, 233, 234, 235, 236, 237, 238, 239, 240, 241, 242, 243, 244, 245, 246, 247, 248, 249, 250, 251, 252, 253, 254, 255, 256, 257, 258, 259, 260, 261, 262, 263, 264, 265, 266, 267, 268, 269, 270, 271, 272, 273, 274, 275, 276, 277, 278, 279, 280, 281, 282, 283, 284, 285, 286, 287, 288, 289, 290, 291, 292, 293, 294, 295, 296, 297, 298, 299, 300, 301, 302, 303, 304, 305, 306, 307, 308, 309, 310, 311, 312, 313, 314, 315, 316, 317, 318, 319, 320, 321, 322, 323, 324, 325, 326, 327, 328, 329, 330, 331, 332, 333, 334, 335, 336, 337, 338, 339, 340, 341, 342, 343, 344, 345, 346, 347, 348, 349, 350, 351, 352, 353, 354, 355, 356, 357, 358, 359, 360, 361, 362, 363, 364, 365, 366, 367, 368, 369, 370, 371, 372, 373, 374, 375, 376, 377, 378, 379, 380, 381, 382, 383, 384, 385, 386, 387, 388, 389, 390, 391, 392, 393, 394, 395, 396, 397, 398, 399, 400, 401, 402, 403, 404, 405, 406, 407, 408, 409, 410, 411, 412, 413, 414, 415, 416, 417, 418, 419, 420, 421, 422, 423, 424, 425, 426, 427, 428, 429, 430, 431, 432, 433, 434, 435, 436, 437, 438, 439, 440, 441, 442, 443, 444, 445, 446, 447, 448, 449, 450, 451, 452, 453, 454, 455, 456, 457, 458, 459, 460, 461, 462, 463, 464, 465, 466, 467, 468, 469, 470, 471, 472, 473, 474, 475, 476, 477, 478, 479, 480, 481, 482, 483, 484, 485, 486, 487, 488, 489, 490, 491, 492, 493, 494, 495, 496, 497, 498, 499, 500, 501, 502, 503, 504, 505, 506, 507, 508, 509, 510], "AcquisitionTime": ["101141.707500", "101142.317500", "101142.927500", "101143.537500", "101144.147500", "101144.757500", "101145.367500", "101145.977500", "101146.587500", "101147.197500", "101147.807500", "101148.417500", "101149.027500", "101149.637500", "101150.247500", "101150.857500", "101151.467500", "101152.077500", "101152.687500", "101153.297500", "101153.907500", "101154.517500", "101155.127500", "101155.737500", "101156.347500", "101156.957500", "101157.567500", "101158.177500", "101158.787500", "101159.397500", "101200.007500", "101200.617500", "101201.227500", "101201.837500", "101202.447500", "101203.057500", "101203.667500", "101204.277500", "101204.887500", "101205.497500", "101206.107500", "101206.717500", "101207.327500", "101207.937500", "101208.547500", "101209.157500", "101209.767500", "101210.377500", "101210.987500", "101211.597500", "101212.207500", "101212.817500", "101213.427500", "101214.037500", "101214.647500", "101215.257500", "101215.867500", "101216.477500", "101217.087500", "101217.697500", "101218.307500", "101218.917500", "101219.527500", "101220.137500", "101220.747500", "101221.357500", "101221.967500", "101222.577500", "101223.187500", "101223.797500", "101224.407500", "101225.017500", "101225.627500", "101226.237500", "101226.847500", "101227.457500", "101228.067500", "101228.677500", "101229.287500", "101229.897500", "101230.507500", "101231.117500", "101231.727500", "101232.337500", "101232.947500", "101233.557500", "101234.167500", "101234.777500", "101235.387500", "101235.997500", "101236.607500", "101237.217500", "101237.827500", "101238.437500", "101239.047500", "101239.657500", "101240.267500", "101240.877500", "101241.487500", "101242.097500", "101242.707500", "101243.317500", "101243.927500", "101244.537500", "101245.147500", "101245.757500", "101246.367500", "101246.977500", "101247.587500", "101248.197500", "101248.807500", "101249.417500", "101250.027500", "101250.637500", "101251.247500", "101251.857500", "101252.467500", "101253.077500", "101253.687500", "101254.297500", "101254.907500", "101255.517500", "101256.127500", "101256.737500", "101257.347500", "101257.957500", "101258.567500", "101259.177500", "101259.787500", "101300.397500", "101301.007500", "101301.617500", "101302.227500", "101302.837500", "101303.447500", "101304.057500", "101304.667500", "101305.277500", "101305.887500", "101306.497500", "101307.107500", "101307.717500", "101308.327500", "101308.937500", "101309.547500", "101310.157500", "101310.767500", "101311.377500", "101311.987500", "101312.597500", "101313.207500", "101313.817500", "101314.427500", "101315.037500", "101315.647500", "101316.257500", "101316.867500", "101317.477500", "101318.087500", "101318.697500", "101319.307500", "101319.917500", "101320.527500", "101321.137500", "101321.747500", "101322.357500", "101322.967500", "101323.577500", "101324.187500", "101324.797500", "101325.407500", "101326.017500", "101326.627500", "101327.237500", "101327.847500", "101328.457500", "101329.067500", "101329.677500", "101330.287500", "101330.897500", "101331.507500", "101332.117500", "101332.727500", "101333.337500", "101333.947500", "101334.557500", "101335.167500", "101335.777500", "101336.387500", "101336.997500", "101337.607500", "101338.217500", "101338.827500", "101339.437500", "101340.047500", "101340.657500", "101341.267500", "101341.877500", "101342.487500", "101343.097500", "101343.707500", "101344.317500", "101344.927500", "101345.537500", "101346.147500", "101346.757500", "101347.367500", "101347.977500", "101348.587500", "101349.197500", "101349.807500", "101350.417500", "101351.027500", "101351.637500", "101352.247500", "101352.857500", "101353.467500", "101354.077500", "101354.687500", "101355.297500", "101355.907500", "101356.517500", "101357.127500", "101357.737500", "101358.347500", "101358.957500", "101359.567500", "101400.177500", "101400.787500", "101401.397500", "101402.007500", "101402.617500", "101403.227500", "101403.837500", "101404.447500", "101405.057500", "101405.667500", "101406.277500", "101406.887500", "101407.497500", "101408.107500", "101408.717500", "101409.327500", "101409.937500", "101410.547500", "101411.157500", "101411.767500", "101412.377500", "101412.987500", "101413.597500", "101414.207500", "101414.817500", "101415.427500", "101416.037500", "101416.647500", "101417.257500", "101417.867500", "101418.477500", "101419.087500", "101419.697500", "101420.307500", "101420.917500", "101421.527500", "101422.137500", "101422.747500", "101423.357500", "101423.967500", "101424.577500", "101425.187500", "101425.797500", "101426.407500", "101427.017500", "101427.627500", "101428.237500", "101428.847500", "101429.457500", "101430.067500", "101430.677500", "101431.287500", "101431.897500", "101432.507500", "101433.117500", "101433.727500", "101434.337500", "101434.947500", "101435.557500", "101436.167500", "101436.777500", "101437.387500", "101437.997500", "101438.607500", "101439.217500", "101439.827500", "101440.437500", "101441.047500", "101441.657500", "101442.267500", "101442.877500", "101443.487500", "101444.097500", "101444.707500", "101445.317500", "101445.927500", "101446.537500", "101447.147500", "101447.757500", "101448.367500", "101448.977500", "101449.587500", "101450.197500", "101450.807500", "101451.417500", "101452.027500", "101452.637500", "101453.247500", "101453.857500", "101454.467500", "101455.077500", "101455.687500", "101456.297500", "101456.907500", "101457.517500", "101458.127500", "101458.737500", "101459.347500", "101459.957500", "101500.567500", "101501.177500", "101501.787500", "101502.397500", "101503.007500", "101503.617500", "101504.227500", "101504.837500", "101505.447500", "101506.057500", "101506.667500", "101507.277500", "101507.887500", "101508.497500", "101509.107500", "101509.717500", "101510.327500", "101510.937500", "101511.547500", "101512.157500", "101512.767500", "101513.377500", "101513.987500", "101514.597500", "101515.207500", "101515.817500", "101516.427500", "101517.037500", "101517.647500", "101518.257500", "101518.867500", "101519.477500", "101520.087500", "101520.697500", "101521.307500", "101521.917500", "101522.527500", "101523.137500", "101523.747500", "101524.357500", "101524.967500", "101525.577500", "101526.187500", "101526.797500", "101527.407500", "101528.017500", "101528.627500", "101529.237500", "101529.847500", "101530.457500", "101531.067500", "101531.677500", "101532.287500", "101532.897500", "101533.507500", "101534.117500", "101534.727500", "101535.337500", "101535.947500", "101536.557500", "101537.167500", "101537.777500", "101538.387500", "101538.997500", "101539.607500", "101540.217500", "101540.827500", "101541.437500", "101542.047500", "101542.657500", "101543.267500", "101543.877500", "101544.487500", "101545.097500", "101545.707500", "101546.317500", "101546.927500", "101547.537500", "101548.147500", "101548.757500", "101549.367500", "101549.977500", "101550.587500", "101551.197500", "101551.807500", "101552.417500", "101553.027500", "101553.637500", "101554.247500", "101554.857500", "101555.467500", "101556.077500", "101556.687500", "101557.297500", "101557.907500", "101558.517500", "101559.127500", "101559.737500", "101600.347500", "101600.957500", "101601.567500", "101602.177500", "101602.787500", "101603.397500", "101604.007500", "101604.617500", "101605.227500", "101605.837500", "101606.447500", "101607.057500", "101607.667500", "101608.277500", "101608.887500", "101609.497500", "101610.107500", "101610.717500", "101611.327500", "101611.937500", "101612.547500", "101613.157500", "101613.767500", "101614.377500", "101614.987500", "101615.597500", "101616.207500", "101616.817500", "101617.427500", "101618.037500", "101618.647500", "101619.257500", "101619.867500", "101620.477500", "101621.087500", "101621.697500", "101622.307500", "101622.917500", "101623.527500", "101624.137500", "101624.747500", "101625.357500", "101625.967500", "101626.577500", "101627.187500", "101627.797500", "101628.407500", "101629.017500", "101629.627500", "101630.237500", "101630.847500", "101631.457500", "101632.067500", "101632.677500", "101633.287500", "101633.897500", "101634.507500", "101635.117500", "101635.727500", "101636.337500", "101636.947500", "101637.557500", "101638.167500", "101638.777500", "101639.387500", "101639.997500", "101640.607500", "101641.217500", "101641.827500", "101642.437500", "101643.047500", "101643.657500", "101644.267500", "101644.877500", "101645.487500", "101646.097500", "101646.707500", "101647.317500", "101647.927500", "101648.537500", "101649.147500", "101649.757500", "101650.367500", "101650.977500", "101651.587500", "101652.197500"], "ContentTime": ["101156.712000", "101156.715000", "101156.717000", "101156.720000", "101156.722000", "101156.735000", "101156.737000", "101156.740000", "101156.742000", "101156.745000", "101156.747000", "101156.771000", "101156.773000", "101156.776000", "101156.789000", "101156.792000", "101156.794000", "101156.797000", "101156.799000", "101156.802000", "101156.804000", "101156.806000", "101156.809000", "101216.707000", "101216.710000", "101216.712000", "101216.715000", "101216.717000", "101216.720000", "101216.722000", "101216.725000", "101216.727000", "101216.730000", "101216.732000", "101216.735000", "101216.737000", "101216.739000", "101216.742000", "101216.744000", "101216.747000", "101216.749000", "101216.751000", "101216.754000", "101216.756000", "101216.759000", "101216.761000", "101216.763000", "101216.766000", "101216.768000", "101216.771000", "101216.779000", "101216.782000", "101216.784000", "101216.787000", "101216.789000", "101216.791000", "101236.707000", "101236.716000", "101236.719000", "101236.721000", "101236.724000", "101236.726000", "101236.729000", "101236.731000", "101236.733000", "101236.736000", "101236.738000", "101236.741000", "101236.743000", "101236.745000", "101236.748000", "101236.750000", "101236.753000", "101236.755000", "101236.757000", "101236.760000", "101236.762000", "101236.765000", "101236.769000", "101236.772000", "101236.774000", "101236.776000", "101236.779000", "101236.781000", "101236.784000", "101236.786000", "101236.788000", "101236.791000", "101236.793000", "101256.707000", "101256.710000", "101256.713000", "101256.715000", "101256.718000", "101256.720000", "101256.723000", "101256.725000", "101256.727000", "101256.730000", "101256.732000", "101256.735000", "101256.737000", "101256.739000", "101256.742000", "101256.744000", "101256.747000", "101256.749000", "101256.752000", "101256.754000", "101256.756000", "101256.759000", "101256.761000", "101256.764000", "101256.766000", "101256.769000", "101256.771000", "101256.773000", "101256.776000", "101256.778000", "101256.781000", "101256.783000", "101256.785000", "101316.707000", "101316.710000", "101316.713000", "101316.715000", "101316.717000", "101316.720000", "101316.722000", "101316.725000", "101316.727000", "101316.729000", "101316.732000", "101316.734000", "101316.737000", "101316.739000", "101316.741000", "101316.744000", "101316.751000", "101316.754000", "101316.756000", "101316.759000", "101316.761000", "101316.763000", "101316.766000", "101316.768000", "101316.771000", "101316.773000", "101316.775000", "101316.778000", "101316.780000", "101316.783000", "101316.785000", "101316.787000", "101316.790000", "101336.709000", "101336.711000", "101336.714000", "101336.716000", "101336.719000", "101336.721000", "101336.724000", "101336.726000", "101336.729000", "101336.731000", "101336.733000", "101336.736000", "101336.738000", "101336.741000", "101336.743000", "101336.745000", "101336.748000", "101336.750000", "101336.752000", "101336.755000", "101336.757000", "101336.760000", "101336.762000", "101336.765000", "101336.767000", "101336.769000", "101336.772000", "101336.774000", "101336.777000", "101336.779000", "101336.781000", "101336.784000", "101356.708000", "101356.710000", "101356.713000", "101356.715000", "101356.718000", "101356.720000", "101356.723000", "101356.725000", "101356.727000", "101356.730000", "101356.732000", "101356.735000", "101356.737000", "101356.739000", "101356.742000", "101356.744000", "101356.747000", "101356.749000", "101356.752000", "101356.754000", "101356.756000", "101356.759000", "101356.761000", "101356.764000", "101356.766000", "101356.769000", "101356.771000", "101356.774000", "101356.776000", "101356.779000", "101356.781000", "101356.783000", "101356.786000", "101416.707000", "101416.710000", "101416.712000", "101416.715000", "101416.717000", "101416.719000", "101416.722000", "101416.725000", "101416.727000", "101416.729000", "101416.732000", "101416.734000", "101416.737000", "101416.739000", "101416.742000", "101416.744000", "101416.746000", "101416.749000", "101416.751000", "101416.754000", "101416.756000", "101416.758000", "101416.761000", "101416.763000", "101416.766000", "101416.768000", "101416.770000", "101416.773000", "101416.775000", "101416.778000", "101416.780000", "101416.783000", "101416.785000", "101436.707000", "101436.710000", "101436.712000", "101436.715000", "101436.717000", "101436.720000", "101436.722000", "101436.724000", "101436.727000", "101436.729000", "101436.732000", "101436.734000", "101436.737000", "101436.739000", "101436.741000", "101436.744000", "101436.746000", "101436.749000", "101436.751000", "101436.753000", "101436.756000", "101436.758000", "101436.761000", "101436.763000", "101436.766000", "101436.768000", "101436.770000", "101436.773000", "101436.775000", "101436.778000", "101436.780000", "101436.783000", "101436.785000", "101456.707000", "101456.710000", "101456.712000", "101456.715000", "101456.717000", "101456.719000", "101456.722000", "101456.724000", "101456.727000", "101456.729000", "101456.731000", "101456.734000", "101456.736000", "101456.739000", "101456.741000", "101456.744000", "101456.746000", "101456.748000", "101456.751000", "101456.753000", "101456.756000", "101456.758000", "101456.760000", "101456.763000", "101456.765000", "101456.768000", "101456.770000", "101456.773000", "101456.775000", "101456.778000", "101456.780000", "101456.782000", "101456.785000", "101516.707000", "101516.710000", "101516.712000", "101516.715000", "101516.717000", "101516.720000", "101516.722000", "101516.725000", "101516.727000", "101516.730000", "101516.732000", "101516.734000", "101516.737000", "101516.739000", "101516.742000", "101516.744000", "101516.747000", "101516.749000", "101516.752000", "101516.754000", "101516.757000", "101516.759000", "101516.761000", "101516.764000", "101516.766000", "101516.769000", "101516.771000", "101516.774000", "101516.776000", "101516.778000", "101516.781000", "101516.783000", "101536.707000", "101536.710000", "101536.713000", "101536.715000", "101536.717000", "101536.720000", "101536.722000", "101536.725000", "101536.727000", "101536.730000", "101536.732000", "101536.735000", "101536.737000", "101536.739000", "101536.742000", "101536.744000", "101536.747000", "101536.749000", "101536.751000", "101536.754000", "101536.756000", "101536.759000", "101536.761000", "101536.764000", "101536.766000", "101536.768000", "101536.771000", "101536.773000", "101536.776000", "101536.778000", "101536.780000", "101536.783000", "101536.785000", "101556.708000", "101556.711000", "101556.714000", "101556.716000", "101556.718000", "101556.721000", "101556.723000", "101556.726000", "101556.728000", "101556.738000", "101556.741000", "101556.743000", "101556.745000", "101556.748000", "101556.750000", "101556.753000", "101556.762000", "101556.764000", "101556.767000", "101556.769000", "101556.771000", "101556.774000", "101556.776000", "101556.779000", "101556.781000", "101556.784000", "101556.786000", "101556.789000", "101556.791000", "101556.793000", "101556.796000", "101556.798000", "101556.801000", "101616.707000", "101616.710000", "101616.712000", "101616.715000", "101616.717000", "101616.720000", "101616.722000", "101616.724000", "101616.727000", "101616.729000", "101616.732000", "101616.734000", "101616.737000", "101616.739000", "101616.742000", "101616.744000", "101616.747000", "101616.749000", "101616.751000", "101616.754000", "101616.756000", "101616.759000", "101616.761000", "101616.763000", "101616.766000", "101616.768000", "101616.770000", "101616.773000", "101616.775000", "101616.777000", "101616.780000", "101616.786000", "101616.793000", "101636.707000", "101636.710000", "101636.713000", "101636.715000", "101636.718000", "101636.721000", "101636.723000", "101636.726000", "101636.729000", "101636.731000", "101636.735000", "101636.737000", "101636.740000", "101636.742000", "101636.745000", "101636.747000", "101636.750000", "101636.752000", "101636.755000", "101636.757000", "101636.760000", "101636.762000", "101636.765000", "101636.767000", "101636.773000", "101636.775000", "101636.778000", "101636.780000", "101636.783000", "101636.785000", "101636.787000", "101636.790000", "101653.181000", "101653.183000", "101653.186000", "101653.189000", "101653.191000", "101653.193000", "101653.196000", "101653.198000", "101653.201000", "101653.203000", "101653.206000", "101653.208000", "101653.210000", "101653.213000", "101653.215000", "101653.218000", "101653.220000", "101653.222000", "101653.225000", "101653.227000", "101653.230000", "101653.232000", "101653.235000", "101653.237000", "101653.239000", "101653.242000", "101653.244000", "101653.247000"], "InstanceCreationTime": ["101156.712000", "101156.715000", "101156.717000", "101156.720000", "101156.722000", "101156.735000", "101156.737000", "101156.740000", "101156.742000", "101156.745000", "101156.747000", "101156.771000", "101156.773000", "101156.776000", "101156.789000", "101156.792000", "101156.794000", "101156.797000", "101156.799000", "101156.802000", "101156.804000", "101156.806000", "101156.809000", "101216.707000", "101216.710000", "101216.712000", "101216.715000", "101216.717000", "101216.720000", "101216.722000", "101216.725000", "101216.727000", "101216.730000", "101216.732000", "101216.735000", "101216.737000", "101216.739000", "101216.742000", "101216.744000", "101216.747000", "101216.749000", "101216.751000", "101216.754000", "101216.756000", "101216.759000", "101216.761000", "101216.763000", "101216.766000", "101216.768000", "101216.771000", "101216.779000", "101216.782000", "101216.784000", "101216.787000", "101216.789000", "101216.791000", "101236.707000", "101236.716000", "101236.719000", "101236.721000", "101236.724000", "101236.726000", "101236.729000", "101236.731000", "101236.733000", "101236.736000", "101236.738000", "101236.741000", "101236.743000", "101236.745000", "101236.748000", "101236.750000", "101236.753000", "101236.755000", "101236.757000", "101236.760000", "101236.762000", "101236.765000", "101236.769000", "101236.772000", "101236.774000", "101236.776000", "101236.779000", "101236.781000", "101236.784000", "101236.786000", "101236.788000", "101236.791000", "101236.793000", "101256.707000", "101256.710000", "101256.713000", "101256.715000", "101256.718000", "101256.720000", "101256.723000", "101256.725000", "101256.727000", "101256.730000", "101256.732000", "101256.735000", "101256.737000", "101256.739000", "101256.742000", "101256.744000", "101256.747000", "101256.749000", "101256.752000", "101256.754000", "101256.756000", "101256.759000", "101256.761000", "101256.764000", "101256.766000", "101256.769000", "101256.771000", "101256.773000", "101256.776000", "101256.778000", "101256.781000", "101256.783000", "101256.785000", "101316.707000", "101316.710000", "101316.713000", "101316.715000", "101316.717000", "101316.720000", "101316.722000", "101316.725000", "101316.727000", "101316.729000", "101316.732000", "101316.734000", "101316.737000", "101316.739000", "101316.741000", "101316.744000", "101316.751000", "101316.754000", "101316.756000", "101316.759000", "101316.761000", "101316.763000", "101316.766000", "101316.768000", "101316.771000", "101316.773000", "101316.775000", "101316.778000", "101316.780000", "101316.783000", "101316.785000", "101316.787000", "101316.790000", "101336.709000", "101336.711000", "101336.714000", "101336.716000", "101336.719000", "101336.721000", "101336.724000", "101336.726000", "101336.729000", "101336.731000", "101336.733000", "101336.736000", "101336.738000", "101336.741000", "101336.743000", "101336.745000", "101336.748000", "101336.750000", "101336.752000", "101336.755000", "101336.757000", "101336.760000", "101336.762000", "101336.765000", "101336.767000", "101336.769000", "101336.772000", "101336.774000", "101336.777000", "101336.779000", "101336.781000", "101336.784000", "101356.708000", "101356.710000", "101356.713000", "101356.715000", "101356.718000", "101356.720000", "101356.723000", "101356.725000", "101356.727000", "101356.730000", "101356.732000", "101356.735000", "101356.737000", "101356.739000", "101356.742000", "101356.744000", "101356.747000", "101356.749000", "101356.752000", "101356.754000", "101356.756000", "101356.759000", "101356.761000", "101356.764000", "101356.766000", "101356.769000", "101356.771000", "101356.774000", "101356.776000", "101356.779000", "101356.781000", "101356.783000", "101356.786000", "101416.707000", "101416.710000", "101416.712000", "101416.715000", "101416.717000", "101416.719000", "101416.722000", "101416.725000", "101416.727000", "101416.729000", "101416.732000", "101416.734000", "101416.737000", "101416.739000", "101416.742000", "101416.744000", "101416.746000", "101416.749000", "101416.751000", "101416.754000", "101416.756000", "101416.758000", "101416.761000", "101416.763000", "101416.766000", "101416.768000", "101416.770000", "101416.773000", "101416.775000", "101416.778000", "101416.780000", "101416.783000", "101416.785000", "101436.707000", "101436.710000", "101436.712000", "101436.715000", "101436.717000", "101436.720000", "101436.722000", "101436.724000", "101436.727000", "101436.729000", "101436.732000", "101436.734000", "101436.737000", "101436.739000", "101436.741000", "101436.744000", "101436.746000", "101436.749000", "101436.751000", "101436.753000", "101436.756000", "101436.758000", "101436.761000", "101436.763000", "101436.766000", "101436.768000", "101436.770000", "101436.773000", "101436.775000", "101436.778000", "101436.780000", "101436.783000", "101436.785000", "101456.707000", "101456.710000", "101456.712000", "101456.715000", "101456.717000", "101456.719000", "101456.722000", "101456.724000", "101456.727000", "101456.729000", "101456.731000", "101456.734000", "101456.736000", "101456.739000", "101456.741000", "101456.744000", "101456.746000", "101456.748000", "101456.751000", "101456.753000", "101456.756000", "101456.758000", "101456.760000", "101456.763000", "101456.765000", "101456.768000", "101456.770000", "101456.773000", "101456.775000", "101456.778000", "101456.780000", "101456.782000", "101456.785000", "101516.707