{
    "AcquisitionMatrixPE": 64,
    "AcquisitionNumber": 1,
    "AcquisitionTime": "16:29:11.792500",
    "BandwidthPerPixelPhaseEncode": 28.935,
    "BaseResolution": 64,
    "BodyPartExamined": "BRAIN",
    "CoilCombinationMethod": "Sum of Squares",
    "ConsistencyInfo": "N4_VE11E_LATEST_20181129",
    "ConversionSoftware": "dcm2niix",
    "ConversionSoftwareVersion": "v1.0.20211006",
    "DerivedVendorReportedEchoSpacing": 0.000540003,
    "DeviceSerialNumber": "166182",
    "DwellTime": 3.4e-06,
    "EchoTime": 0.032,
    "EchoTrainLength": 64,
    "EffectiveEchoSpacing": 0.000540003,
    "FlipAngle": 40,
    "ImageOrientationPatientDICOM": [
        0.992209,
        0.123913,
        -0.0128832,
        -0.124466,
        0.990425,
        -0.0597285
    ],
    "ImageOrientationText": "Tra>Cor(-3.5)>Sag(-0.3)",
    "ImageType": [
        "ORIGINAL",
        "PRIMARY",
        "M",
        "ND",
        "NORM",
        "MOSAIC"
    ],
    "ImagingFrequency": 123.258,
    "InPlanePhaseEncodingDirectionDICOM": "COL",
    "InstitutionAddress": "PEARSE STREET .,City,District,IE,D2",
    "InstitutionName": "TCIN",
    "InstitutionalDepartmentName": "MRI",
    "MRAcquisitionType": "2D",
    "MagneticFieldStrength": 3,
    "Manufacturer": "Siemens",
    "ManufacturersModelName": "Prisma",
    "Modality": "MR",
    "MultibandAccelerationFactor": 4,
    "PartialFourier": 1,
    "PatientPosition": "HFS",
    "PercentPhaseFOV": 100,
    "PercentSampling": 100,
    "PhaseEncodingDirection": "j-",
    "PhaseEncodingSteps": 64,
    "PhaseResolution": 1,
    "PixelBandwidth": 2300,
    "ProcedureStepDescription": "Rhodri^Head BOLD",
    "ProtocolName": "cmrr_mbep2d_bold_Pictures_AP",
    "PulseSequenceDetails": "%SiemensSeq%\\ep2d_bold",
    "ReceiveCoilActiveElements": "HC2,4,6,7;NC2;SC",
    "ReceiveCoilName": "HeadNeck_64",
    "ReconMatrixPE": 64,
    "RefLinesPE": 12,
    "RepetitionTime": 0.61,
    "SAR": 0.42272,
    "ScanOptions": "FS",
    "ScanningSequence": "EP",
    "SequenceName": "*epfid2d1_64",
    "SequenceVariant": "SK",
    "SeriesDescription": "cmrr_mbep2d_bold_Pictures_AP",
    "SeriesNumber": 7,
    "ShimSetting": [
        -3545,
        -7497,
        3836,
        1017,
        -314,
        424,
        168,
        96
    ],
    "SliceThickness": 3,
    "SliceTiming": [
        0.2625,
        0,
        0.3275,
        0.065,
        0.3925,
        0.13,
        0.4575,
        0.195,
        0.5225,
        0.2625,
        0,
        0.3275,
        0.065,
        0.3925,
        0.13,
        0.4575,
        0.195,
        0.5225,
        0.2625,
        0,
        0.3275,
        0.065,
        0.3925,
        0.13,
        0.4575,
        0.195,
        0.5225,
        0.2625,
        0,
        0.3275,
        0.065,
        0.3925,
        0.13,
        0.4575,
        0.195,
        0.5225
    ],
    "SoftwareVersions": "syngo MR E11",
    "SpacingBetweenSlices": 3.3,
    "StationName": "AWP166182",
    "TaskName": "pictures",
    "TotalReadoutTime": 0.0340202,
    "TxRefAmp": 260.814,
    "dcmmeta_affine": [
        [
            -2.976628303527832,
            -0.3733968734741211,
            -0.017683718353509903,
            108.32402801513672
        ],
        [
            -0.3717389702796936,
            2.97127366065979,
            -0.20086006820201874,
            -84.59668731689453
        ],
        [
            -0.03864959999918938,
            0.17918546497821808,
            3.2938339710235596,
            -107.64612579345703
        ],
        [
            0.0,
            0.0,
            0.0,
            1.0
        ]
    ],
    "dcmmeta_reorient_transform": [
        [
            0.0,
            -1.0,
            0.0,
            63.0
        ],
        [
            1.0,
            0.0,
            0.0,
            0.0
        ],
        [
            0.0,
            0.0,
            1.0,
            0.0
        ],
        [
            0.0,
            0.0,
            0.0,
            1.0
        ]
    ],
    "dcmmeta_shape": [
        64,
        64,
        36,
        510
    ],
    "dcmmeta_slice_dim": 2,
    "dcmmeta_version": 0.6,
    "global": {
        "const": {
            "AcquisitionMatrix": [
                64,
                0,
                0,
                64
            ],
            "AngioFlag": "N",
            "BitsAllocated": 16,
            "BitsStored": 12,
            "BodyPartExamined": "BRAIN",
            "Columns": 384,
            "EchoNumbers": 1,
            "EchoTime": 32.0,
            "EchoTrainLength": 64,
            "FlipAngle": 40.0,
            "HighBit": 11,
            "ImageOrientationPatient": [
                0.99220945053915,
                0.12391299126735,
                -0.0128832005331,
                -0.124465620025,
                0.9904245640173,
                -0.0597284892069
            ],
            "ImagePositionPatient": [
                -501.31706798487,
                -637.47558167382,
                -61.503829856707
            ],
            "ImageType": [
                "ORIGINAL",
                "PRIMARY",
                "M",
                "ND",
                "NORM",
                "MOSAIC"
            ],
            "ImagedNucleus": "1H",
            "ImagingFrequency": 123.25754,
            "InPlanePhaseEncodingDirection": "COL",
            "MRAcquisitionType": "2D",
            "MagneticFieldStrength": 3.0,
            "Manufacturer": "SIEMENS",
            "ManufacturerModelName": "Prisma",
            "Modality": "MR",
            "NumberOfAverages": 1.0,
            "NumberOfPhaseEncodingSteps": 64,
            "PercentPhaseFieldOfView": 100.0,
            "PercentSampling": 100.0,
            "PerformedProcedureStepStartTime": "161041.306000",
            "PhotometricInterpretation": "MONOCHROME2",
            "PixelBandwidth": 2300.0,
            "PixelRepresentation": 0,
            "PixelSpacing": [
                3.0,
                3.0
            ],
            "ProtocolName": "cmrr_mbep2d_bold_Pictures_AP",
            "RepetitionTime": 610.0,
            "Rows": 384,
            "SAR": 0.42271967650031,
            "SamplesPerPixel": 1,
            "ScanOptions": "FS",
            "ScanningSequence": "EP",
            "SequenceName": "*epfid2d1_64",
            "SequenceVariant": "SK",
            "SeriesDescription": "cmrr_mbep2d_bold_Pictures_AP",
            "SeriesNumber": 7,
            "SeriesTime": "162942.942000",
            "SliceLocation": -102.8763468955,
            "SliceThickness": 3.0,
            "SmallestImagePixelValue": 0,
            "SoftwareVersions": "syngo MR E11",
            "SpacingBetweenSlices": 3.29999998976,
            "SpecificCharacterSet": "ISO_IR 100",
            "StudyID": "2",
            "StudyTime": "161041.245000",
            "TransmitCoilName": "Body",
            "VariableFlipAngleFlag": "N",
            "WindowCenterWidthExplanation": "Algo1"
        },
        "slices": {}
    },
    "time": {
        "samples": {
            "AcquisitionNumber": [
                1,
                2,
                3,
                4,
                5,
                6,
                7,
                8,
                9,
                10,
                11,
                12,
                13,
                14,
                15,
                16,
                17,
                18,
                19,
                20,
                21,
                22,
                23,
                24,
                25,
                26,
                27,
                28,
                29,
                30,
                31,
                32,
                33,
                34,
                35,
                36,
                37,
                38,
                39,
                40,
                41,
                42,
                43,
                44,
                45,
                46,
                47,
                48,
                49,
                50,
                51,
                52,
                53,
                54,
                55,
                56,
                57,
                58,
                59,
                60,
                61,
                62,
                63,
                64,
                65,
                66,
                67,
                68,
                69,
                70,
                71,
                72,
                73,
                74,
                75,
                76,
                77,
                78,
                79,
                80,
                81,
                82,
                83,
                84,
                85,
                86,
                87,
                88,
                89,
                90,
                91,
                92,
                93,
                94,
                95,
                96,
                97,
                98,
                99,
                100,
                101,
                102,
                103,
                104,
                105,
                106,
                107,
                108,
                109,
                110,
                111,
                112,
                113,
                114,
                115,
                116,
                117,
                118,
                119,
                120,
                121,
                122,
                123,
                124,
                125,
                126,
                127,
                128,
                129,
                130,
                131,
                132,
                133,
                134,
                135,
                136,
                137,
                138,
                139,
                140,
                141,
                142,
                143,
                144,
                145,
                146,
                147,
                148,
                149,
                150,
                151,
                152,
                153,
                154,
                155,
                156,
                157,
                158,
                159,
                160,
                161,
                162,
                163,
                164,
                165,
                166,
                167,
                168,
                169,
                170,
                171,
                172,
                173,
                174,
                175,
                176,
                177,
                178,
                179,
                180,
                181,
                182,
                183,
                184,
                185,
                186,
                187,
                188,
                189,
                190,
                191,
                192,
                193,
                194,
                195,
                196,
                197,
                198,
                199,
                200,
                201,
                202,
                203,
                204,
                205,
                206,
                207,
                208,
                209,
                210,
                211,
                212,
                213,
                214,
                215,
                216,
                217,
                218,
                219,
                220,
                221,
                222,
                223,
                224,
                225,
                226,
                227,
                228,
                229,
                230,
                231,
                232,
                233,
                234,
                235,
                236,
                237,
                238,
                239,
                240,
                241,
                242,
                243,
                244,
                245,
                246,
                247,
                248,
                249,
                250,
                251,
                252,
                253,
                254,
                255,
                256,
                257,
                258,
                259,
                260,
                261,
                262,
                263,
                264,
                265,
                266,
                267,
                268,
                269,
                270,
                271,
                272,
                273,
                274,
                275,
                276,
                277,
                278,
                279,
                280,
                281,
                282,
                283,
                284,
                285,
                286,
                287,
                288,
                289,
                290,
                291,
                292,
                293,
                294,
                295,
                296,
                297,
                298,
                299,
                300,
                301,
                302,
                303,
                304,
                305,
                306,
                307,
                308,
                309,
                310,
                311,
                312,
                313,
                314,
                315,
                316,
                317,
                318,
                319,
                320,
                321,
                322,
                323,
                324,
                325,
                326,
                327,
                328,
                329,
                330,
                331,
                332,
                333,
                334,
                335,
                336,
                337,
                338,
                339,
                340,
                341,
                342,
                343,
                344,
                345,
                346,
                347,
                348,
                349,
                350,
                351,
                352,
                353,
                354,
                355,
                356,
                357,
                358,
                359,
                360,
                361,
                362,
                363,
                364,
                365,
                366,
                367,
                368,
                369,
                370,
                371,
                372,
                373,
                374,
                375,
                376,
                377,
                378,
                379,
                380,
                381,
                382,
                383,
                384,
                385,
                386,
                387,
                388,
                389,
                390,
                391,
                392,
                393,
                394,
                395,
                396,
                397,
                398,
                399,
                400,
                401,
                402,
                403,
                404,
                405,
                406,
                407,
                408,
                409,
                410,
                411,
                412,
                413,
                414,
                415,
                416,
                417,
                418,
                419,
                420,
                421,
                422,
                423,
                424,
                425,
                426,
                427,
                428,
                429,
                430,
                431,
                432,
                433,
                434,
                435,
                436,
                437,
                438,
                439,
                440,
                441,
                442,
                443,
                444,
                445,
                446,
                447,
                448,
                449,
                450,
                451,
                452,
                453,
                454,
                455,
                456,
                457,
                458,
                459,
                460,
                461,
                462,
                463,
                464,
                465,
                466,
                467,
                468,
                469,
                470,
                471,
                472,
                473,
                474,
                475,
                476,
                477,
                478,
                479,
                480,
                481,
                482,
                483,
                484,
                485,
                486,
                487,
                488,
                489,
                490,
                491,
                492,
                493,
                494,
                495,
                496,
                497,
                498,
                499,
                500,
                501,
                502,
                503,
                504,
                505,
                506,
                507,
                508,
                509,
                510
            ],
            "AcquisitionTime": [
                "162911.792500",
                "162912.402500",
                "162913.012500",
                "162913.622500",
                "162914.232500",
                "162914.842500",
                "162915.452500",
                "162916.062500",
                "162916.672500",
                "162917.282500",
                "162917.892500",
                "162918.502500",
                "162919.112500",
                "162919.722500",
                "162920.332500",
                "162920.942500",
                "162921.552500",
                "162922.162500",
                "162922.772500",
                "162923.382500",
                "162923.992500",
                "162924.602500",
                "162925.212500",
                "162925.822500",
                "162926.432500",
                "162927.042500",
                "162927.652500",
                "162928.262500",
                "162928.872500",
                "162929.482500",
                "162930.092500",
                "162930.702500",
                "162931.312500",
                "162931.922500",
                "162932.532500",
                "162933.142500",
                "162933.752500",
                "162934.362500",
                "162934.972500",
                "162935.582500",
                "162936.192500",
                "162936.802500",
                "162937.412500",
                "162938.022500",
                "162938.632500",
                "162939.242500",
                "162939.852500",
                "162940.462500",
                "162941.072500",
                "162941.682500",
                "162942.292500",
                "162942.902500",
                "162943.512500",
                "162944.122500",
                "162944.732500",
                "162945.342500",
                "162945.952500",
                "162946.562500",
                "162947.172500",
                "162947.782500",
                "162948.392500",
                "162949.002500",
                "162949.612500",
                "162950.222500",
                "162950.832500",
                "162951.442500",
                "162952.052500",
                "162952.662500",
                "162953.272500",
                "162953.882500",
                "162954.492500",
                "162955.102500",
                "162955.712500",
                "162956.322500",
                "162956.932500",
                "162957.542500",
                "162958.152500",
                "162958.762500",
                "162959.372500",
                "162959.982500",
                "163000.592500",
                "163001.202500",
                "163001.812500",
                "163002.422500",
                "163003.032500",
                "163003.642500",
                "163004.252500",
                "163004.862500",
                "163005.472500",
                "163006.082500",
                "163006.692500",
                "163007.302500",
                "163007.912500",
                "163008.522500",
                "163009.132500",
                "163009.742500",
                "163010.352500",
                "163010.962500",
                "163011.572500",
                "163012.182500",
                "163012.792500",
                "163013.402500",
                "163014.012500",
                "163014.622500",
                "163015.232500",
                "163015.842500",
                "163016.452500",
                "163017.062500",
                "163017.672500",
                "163018.282500",
                "163018.892500",
                "163019.502500",
                "163020.112500",
                "163020.722500",
                "163021.332500",
                "163021.942500",
                "163022.552500",
                "163023.162500",
                "163023.772500",
                "163024.382500",
                "163024.992500",
                "163025.602500",
                "163026.212500",
                "163026.822500",
                "163027.432500",
                "163028.042500",
                "163028.652500",
                "163029.262500",
                "163029.872500",
                "163030.482500",
                "163031.092500",
                "163031.702500",
                "163032.312500",
                "163032.922500",
                "163033.532500",
                "163034.142500",
                "163034.752500",
                "163035.362500",
                "163035.972500",
                "163036.582500",
                "163037.192500",
                "163037.802500",
                "163038.412500",
                "163039.022500",
                "163039.632500",
                "163040.242500",
                "163040.852500",
                "163041.462500",
                "163042.072500",
                "163042.682500",
                "163043.292500",
                "163043.902500",
                "163044.512500",
                "163045.122500",
                "163045.732500",
                "163046.342500",
                "163046.952500",
                "163047.562500",
                "163048.172500",
                "163048.782500",
                "163049.392500",
                "163050.002500",
                "163050.612500",
                "163051.222500",
                "163051.832500",
                "163052.442500",
                "163053.052500",
                "163053.662500",
                "163054.272500",
                "163054.882500",
                "163055.492500",
                "163056.102500",
                "163056.712500",
                "163057.322500",
                "163057.932500",
                "163058.542500",
                "163059.152500",
                "163059.762500",
                "163100.372500",
                "163100.982500",
                "163101.592500",
                "163102.202500",
                "163102.812500",
                "163103.422500",
                "163104.032500",
                "163104.642500",
                "163105.252500",
                "163105.862500",
                "163106.472500",
                "163107.082500",
                "163107.692500",
                "163108.302500",
                "163108.912500",
                "163109.522500",
                "163110.132500",
                "163110.742500",
                "163111.352500",
                "163111.962500",
                "163112.572500",
                "163113.182500",
                "163113.792500",
                "163114.402500",
                "163115.012500",
                "163115.622500",
                "163116.232500",
                "163116.842500",
                "163117.452500",
                "163118.062500",
                "163118.672500",
                "163119.282500",
                "163119.892500",
                "163120.502500",
                "163121.112500",
                "163121.722500",
                "163122.332500",
                "163122.942500",
                "163123.552500",
                "163124.162500",
                "163124.772500",
                "163125.382500",
                "163125.992500",
                "163126.602500",
                "163127.212500",
                "163127.822500",
                "163128.432500",
                "163129.042500",
                "163129.652500",
                "163130.262500",
                "163130.872500",
                "163131.482500",
                "163132.092500",
                "163132.702500",
                "163133.312500",
                "163133.922500",
                "163134.532500",
                "163135.142500",
                "163135.752500",
                "163136.362500",
                "163136.972500",
                "163137.582500",
                "163138.192500",
                "163138.802500",
                "163139.412500",
                "163140.022500",
                "163140.632500",
                "163141.242500",
                "163141.852500",
                "163142.462500",
                "163143.072500",
                "163143.682500",
                "163144.292500",
                "163144.902500",
                "163145.512500",
                "163146.122500",
                "163146.732500",
                "163147.342500",
                "163147.952500",
                "163148.562500",
                "163149.172500",
                "163149.782500",
                "163150.392500",
                "163151.002500",
                "163151.612500",
                "163152.222500",
                "163152.832500",
                "163153.442500",
                "163154.052500",
                "163154.662500",
                "163155.272500",
                "163155.882500",
                "163156.492500",
                "163157.102500",
                "163157.712500",
                "163158.322500",
                "163158.932500",
                "163159.542500",
                "163200.152500",
                "163200.762500",
                "163201.372500",
                "163201.982500",
                "163202.592500",
                "163203.202500",
                "163203.812500",
                "163204.422500",
                "163205.032500",
                "163205.642500",
                "163206.252500",
                "163206.862500",
                "163207.472500",
                "163208.082500",
                "163208.692500",
                "163209.302500",
                "163209.912500",
                "163210.522500",
                "163211.132500",
                "163211.742500",
                "163212.352500",
                "163212.962500",
                "163213.572500",
                "163214.182500",
                "163214.792500",
                "163215.402500",
                "163216.012500",
                "163216.622500",
                "163217.232500",
                "163217.842500",
                "163218.452500",
                "163219.062500",
                "163219.672500",
                "163220.282500",
                "163220.892500",
                "163221.502500",
                "163222.112500",
                "163222.722500",
                "163223.332500",
                "163223.942500",
                "163224.552500",
                "163225.162500",
                "163225.772500",
                "163226.382500",
                "163226.992500",
                "163227.602500",
                "163228.212500",
                "163228.822500",
                "163229.432500",
                "163230.042500",
                "163230.652500",
                "163231.262500",
                "163231.872500",
                "163232.482500",
                "163233.092500",
                "163233.702500",
                "163234.312500",
                "163234.922500",
                "163235.532500",
                "163236.142500",
                "163236.752500",
                "163237.362500",
                "163237.972500",
                "163238.582500",
                "163239.192500",
                "163239.802500",
                "163240.412500",
                "163241.022500",
                "163241.632500",
                "163242.242500",
                "163242.852500",
                "163243.462500",
                "163244.072500",
                "163244.682500",
                "163245.292500",
                "163245.902500",
                "163246.512500",
                "163247.122500",
                "163247.732500",
                "163248.342500",
                "163248.952500",
                "163249.562500",
                "163250.172500",
                "163250.782500",
                "163251.392500",
                "163252.002500",
                "163252.612500",
                "163253.222500",
                "163253.832500",
                "163254.442500",
                "163255.052500",
                "163255.662500",
                "163256.272500",
                "163256.882500",
                "163257.492500",
