{"AcquisitionMatrixPE": 64, "AcquisitionNumber": 1, "AcquisitionTime": "12:29:3.722500", "BandwidthPerPixelPhaseEncode": 28.935, "BaseResolution": 64, "BodyPartExamined": "BRAIN", "CoilString": "HC2_4_6_7;SC", "ConsistencyInfo": "N4_VE11E_LATEST_20181129", "ConversionSoftware": "dcm2niix", "ConversionSoftwareVersion": "v1.0.20190902", "DerivedVendorReportedEchoSpacing": 0.000540003, "DeviceSerialNumber": "166182", "DwellTime": 3.4e-06, "EchoTime": 0.032, "EchoTrainLength": 64, "EffectiveEchoSpacing": 0.000540003, "FlipAngle": 40, "ImageOrientationPatientDICOM": [0.999475, -0.00735443, -0.0315638, 0.00750118, 0.999962, 0.00453344], "ImageType": ["ORIGINAL", "PRIMARY", "M", "ND", "NORM", "MOSAIC"], "ImagingFrequency": 123.256, "InPlanePhaseEncodingDirectionDICOM": "COL", "InstitutionAddress": "PEARSE_STREET_._City_District_IE_D2", "InstitutionName": "TCIN", "InstitutionalDepartmentName": "MRI", "MRAcquisitionType": "2D", "MagneticFieldStrength": 3, "Manufacturer": "Siemens", "ManufacturersModelName": "Prisma", "Modality": "MR", "MultibandAccelerationFactor": 4, "PartialFourier": 1, "PatientPosition": "HFS", "PercentPhaseFOV": 100, "PhaseEncodingDirection": "j-", "PhaseEncodingSteps": 64, "PhaseResolution": 1, "PixelBandwidth": 2300, "ProcedureStepDescription": "Rhodri_Head_BOLD", "ProtocolName": "cmrr_mbep2d_Pictures_AP_RDS", "PulseSequenceDetails": "%SiemensSeq%_ep2d_bold", "ReceiveCoilActiveElements": "HC2,4,6,7;SC", "ReceiveCoilName": "SpecialPurpose_4", "ReconMatrixPE": 64, "RefLinesPE": 12, "RepetitionTime": 0.61, "SAR": 0.239876, "ScanOptions": "FS", "ScanningSequence": "EP", "SequenceName": "_epfid2d1_64", "SequenceVariant": "SK", "SeriesDescription": "cmrr_mbep2d_Pictures_AP_RDS", "SeriesNumber": 10, "ShimSetting": [-3650, -7464, 3896, 893, 69, -106, 140, 40], "SliceThickness": 3, "SliceTiming": [0.2625, 0, 0.3275, 0.0675, 0.395, 0.1325, 0.46, 0.1975, 0.525, 0.2625, 0, 0.3275, 0.0675, 0.395, 0.1325, 0.46, 0.1975, 0.525, 0.2625, 0, 0.3275, 0.0675, 0.395, 0.1325, 0.46, 0.1975, 0.525, 0.2625, 0, 0.3275, 0.0675, 0.395, 0.1325, 0.46, 0.1975, 0.525], "SoftwareVersions": "syngo_MR_E11", "SpacingBetweenSlices": 3.3, "StationName": "AWP166182", "TaskName": "pictures", "TotalReadoutTime": 0.0340202, "TxRefAmp": 233.441, "dcmmeta_affine": [[-2.9984240531921387, 0.022503549233078957, -0.10404646396636963, 98.27835845947266], [0.022063298150897026, 2.999884843826294, 0.01573382318019867, -95.8988265991211], [-0.09469135105609894, -0.013600322417914867, 3.2983219623565674, -85.49762725830078], [0.0, 0.0, 0.0, 1.0]], "dcmmeta_reorient_transform": [[0.0, -1.0, 0.0, 63.0], [1.0, 0.0, 0.0, 0.0], [0.0, 0.0, 1.0, 0.0], [0.0, 0.0, 0.0, 1.0]], "dcmmeta_shape": [64, 64, 36, 510], "dcmmeta_slice_dim": 2, "dcmmeta_version": 0.6, "global": {"const": {"AcquisitionMatrix": [64, 0, 0, 64], "AngioFlag": "N", "BitsAllocated": 16, "BitsStored": 12, "BodyPartExamined": "BRAIN", "Columns": 384, "EchoNumbers": 1, "EchoTime": 32.0, "EchoTrainLength": 64, "FlipAngle": 40.0, "HighBit": 11, "ImageOrientationPatient": [0.99947468193559, -0.0073544324671, -0.031563784514, 0.0075011830347, 0.99996158934601, 0.0045334408215], "ImagePositionPatient": [-583.04449902741, -569.54534723064, -73.379885741631], "ImageType": ["ORIGINAL", "PRIMARY", "M", "ND", "NORM", "MOSAIC"], "ImagedNucleus": "1H", "ImagingFrequency": 123.256012, "InPlanePhaseEncodingDirection": "COL", "MRAcquisitionType": "2D", "MagneticFieldStrength": 3.0, "Manufacturer": "SIEMENS", "ManufacturerModelName": "Prisma", "Modality": "MR", "NumberOfAverages": 1.0, "NumberOfPhaseEncodingSteps": 64, "PercentPhaseFieldOfView": 100.0, "PercentSampling": 100.0, "PerformedProcedureStepStartTime": "115246.753000", "PhotometricInterpretation": "MONOCHROME2", "PixelBandwidth": 2300.0, "PixelRepresentation": 0, "PixelSpacing": [3.0, 3.0], "ProtocolName": "cmrr_mbep2d_Pictures_AP_RDS", "RepetitionTime": 610.0, "Rows": 384, "SAR": 0.23987594011981, "SamplesPerPixel": 1, "ScanOptions": "FS", "ScanningSequence": "EP", "SequenceName": "*epfid2d1_64", "SequenceVariant": "SK", "SeriesDescription": "cmrr_mbep2d_Pictures_AP_RDS", "SeriesNumber": 10, "SeriesTime": "122933.234000", "SliceLocation": -89.010021280235, "SliceThickness": 3.0, "SmallestImagePixelValue": 0, "SoftwareVersions": "syngo MR E11", "SpacingBetweenSlices": 3.3000001018229, "SpecificCharacterSet": "ISO_IR 100", "StudyID": "1", "StudyTime": "115246.608000", "TransmitCoilName": "Body", "VariableFlipAngleFlag": "N", "WindowCenterWidthExplanation": "Algo1"}, "slices": {}}, "time": {"samples": {"AcquisitionNumber": [1, 2, 3, 4, 5, 6, 7, 8, 9, 10, 11, 12, 13, 14, 15, 16, 17, 18, 19, 20, 21, 22, 23, 24, 25, 26, 27, 28, 29, 30, 31, 32, 33, 34, 35, 36, 37, 38, 39, 40, 41, 42, 43, 44, 45, 46, 47, 48, 49, 50, 51, 52, 53, 54, 55, 56, 57, 58, 59, 60, 61, 62, 63, 64, 65, 66, 67, 68, 69, 70, 71, 72, 73, 74, 75, 76, 77, 78, 79, 80, 81, 82, 83, 84, 85, 86, 87, 88, 89, 90, 91, 92, 93, 94, 95, 96, 97, 98, 99, 100, 101, 102, 103, 104, 105, 106, 107, 108, 109, 110, 111, 112, 113, 114, 115, 116, 117, 118, 119, 120, 121, 122, 123, 124, 125, 126, 127, 128, 129, 130, 131, 132, 133, 134, 135, 136, 137, 138, 139, 140, 141, 142, 143, 144, 145, 146, 147, 148, 149, 150, 151, 152, 153, 154, 155, 156, 157, 158, 159, 160, 161, 162, 163, 164, 165, 166, 167, 168, 169, 170, 171, 172, 173, 174, 175, 176, 177, 178, 179, 180, 181, 182, 183, 184, 185, 186, 187, 188, 189, 190, 191, 192, 193, 194, 195, 196, 197, 198, 199, 200, 201, 202, 203, 204, 205, 206, 207, 208, 209, 210, 211, 212, 213, 214, 215, 216, 217, 218, 219, 220, 221, 222, 223, 224, 225, 226, 227, 228, 229, 230, 231, 232, 233, 234, 235, 236, 237, 238, 239, 240, 241, 242, 243, 244, 245, 246, 247, 248, 249, 250, 251, 252, 253, 254, 255, 256, 257, 258, 259, 260, 261, 262, 263, 264, 265, 266, 267, 268, 269, 270, 271, 272, 273, 274, 275, 276, 277, 278, 279, 280, 281, 282, 283, 284, 285, 286, 287, 288, 289, 290, 291, 292, 293, 294, 295, 296, 297, 298, 299, 300, 301, 302, 303, 304, 305, 306, 307, 308, 309, 310, 311, 312, 313, 314, 315, 316, 317, 318, 319, 320, 321, 322, 323, 324, 325, 326, 327, 328, 329, 330, 331, 332, 333, 334, 335, 336, 337, 338, 339, 340, 341, 342, 343, 344, 345, 346, 347, 348, 349, 350, 351, 352, 353, 354, 355, 356, 357, 358, 359, 360, 361, 362, 363, 364, 365, 366, 367, 368, 369, 370, 371, 372, 373, 374, 375, 376, 377, 378, 379, 380, 381, 382, 383, 384, 385, 386, 387, 388, 389, 390, 391, 392, 393, 394, 395, 396, 397, 398, 399, 400, 401, 402, 403, 404, 405, 406, 407, 408, 409, 410, 411, 412, 413, 414, 415, 416, 417, 418, 419, 420, 421, 422, 423, 424, 425, 426, 427, 428, 429, 430, 431, 432, 433, 434, 435, 436, 437, 438, 439, 440, 441, 442, 443, 444, 445, 446, 447, 448, 449, 450, 451, 452, 453, 454, 455, 456, 457, 458, 459, 460, 461, 462, 463, 464, 465, 466, 467, 468, 469, 470, 471, 472, 473, 474, 475, 476, 477, 478, 479, 480, 481, 482, 483, 484, 485, 486, 487, 488, 489, 490, 491, 492, 493, 494, 495, 496, 497, 498, 499, 500, 501, 502, 503, 504, 505, 506, 507, 508, 509, 510], "AcquisitionTime": ["122903.722500", "122904.332500", "122904.942500", "122905.552500", "122906.162500", "122906.772500", "122907.382500", "122907.992500", "122908.602500", "122909.212500", "122909.822500", "122910.432500", "122911.042500", "122911.652500", "122912.262500", "122912.872500", "122913.482500", "122914.092500", "122914.702500", "122915.312500", "122915.922500", "122916.532500", "122917.142500", "122917.752500", "122918.362500", "122918.972500", "122919.582500", "122920.192500", "122920.802500", "122921.412500", "122922.022500", "122922.632500", "122923.242500", "122923.852500", "122924.462500", "122925.072500", "122925.682500", "122926.292500", "122926.902500", "122927.512500", "122928.122500", "122928.732500", "122929.342500", "122929.952500", "122930.562500", "122931.172500", "122931.782500", "122932.392500", "122933.002500", "122933.612500", "122934.222500", "122934.832500", "122935.442500", "122936.052500", "122936.662500", "122937.272500", "122937.882500", "122938.492500", "122939.102500", "122939.712500", "122940.322500", "122940.932500", "122941.542500", "122942.152500", "122942.762500", "122943.372500", "122943.982500", "122944.592500", "122945.202500", "122945.812500", "122946.422500", "122947.032500", "122947.642500", "122948.252500", "122948.862500", "122949.472500", "122950.082500", "122950.692500", "122951.302500", "122951.912500", "122952.522500", "122953.132500", "122953.742500", "122954.352500", "122954.962500", "122955.572500", "122956.182500", "122956.792500", "122957.402500", "122958.012500", "122958.622500", "122959.232500", "122959.842500", "123000.452500", "123001.062500", "123001.672500", "123002.282500", "123002.892500", "123003.502500", "123004.112500", "123004.722500", "123005.332500", "123005.942500", "123006.552500", "123007.162500", "123007.772500", "123008.382500", "123008.992500", "123009.602500", "123010.212500", "123010.822500", "123011.432500", "123012.042500", "123012.652500", "123013.262500", "123013.872500", "123014.482500", "123015.092500", "123015.702500", "123016.312500", "123016.922500", "123017.532500", "123018.142500", "123018.752500", "123019.362500", "123019.972500", "123020.582500", "123021.192500", "123021.802500", "123022.412500", "123023.022500", "123023.632500", "123024.242500", "123024.852500", "123025.462500", "123026.072500", "123026.682500", "123027.292500", "123027.902500", "123028.512500", "123029.122500", "123029.732500", "123030.342500", "123030.952500", "123031.562500", "123032.172500", "123032.782500", "123033.392500", "123034.002500", "123034.612500", "123035.222500", "123035.832500", "123036.442500", "123037.052500", "123037.662500", "123038.272500", "123038.882500", "123039.492500", "123040.102500", "123040.712500", "123041.322500", "123041.932500", "123042.542500", "123043.152500", "123043.762500", "123044.372500", "123044.982500", "123045.592500", "123046.202500", "123046.812500", "123047.422500", "123048.032500", "123048.642500", "123049.252500", "123049.862500", "123050.472500", "123051.082500", "123051.692500", "123052.302500", "123052.912500", "123053.522500", "123054.132500", "123054.742500", "123055.352500", "123055.962500", "123056.572500", "123057.182500", "123057.792500", "123058.402500", "123059.012500", "123059.622500", "123100.232500", "123100.842500", "123101.452500", "123102.062500", "123102.672500", "123103.282500", "123103.892500", "123104.502500", "123105.112500", "123105.722500", "123106.332500", "123106.942500", "123107.552500", "123108.162500", "123108.772500", "123109.382500", "123109.992500", "123110.602500", "123111.212500", "123111.822500", "123112.432500", "123113.042500", "123113.652500", "123114.262500", "123114.872500", "123115.482500", "123116.092500", "123116.702500", "123117.312500", "123117.922500", "123118.532500", "123119.142500", "123119.752500", "123120.362500", "123120.972500", "123121.582500", "123122.192500", "123122.802500", "123123.412500", "123124.022500", "123124.632500", "123125.242500", "123125.852500", "123126.462500", "123127.072500", "123127.682500", "123128.292500", "123128.902500", "123129.512500", "123130.122500", "123130.732500", "123131.342500", "123131.952500", "123132.562500", "123133.172500", "123133.782500", "123134.392500", "123135.002500", "123135.612500", "123136.222500", "123136.832500", "123137.442500", "123138.052500", "123138.662500", "123139.272500", "123139.882500", "123140.492500", "123141.102500", "123141.712500", "123142.322500", "123142.932500", "123143.542500", "123144.152500", "123144.762500", "123145.372500", "123145.982500", "123146.592500", "123147.202500", "123147.812500", "123148.422500", "123149.032500", "123149.642500", "123150.252500", "123150.862500", "123151.472500", "123152.082500", "123152.692500", "123153.302500", "123153.912500", "123154.522500", "123155.132500", "123155.742500", "123156.352500", "123156.962500", "123157.572500", "123158.182500", "123158.792500", "123159.402500", "123200.012500", "123200.622500", "123201.232500", "123201.842500", "123202.452500", "123203.062500", "123203.672500", "123204.282500", "123204.892500", "123205.502500", "123206.112500", "123206.722500", "123207.332500", "123207.942500", "123208.552500", "123209.162500", "123209.772500", "123210.382500", "123210.992500", "123211.602500", "123212.212500", "123212.822500", "123213.432500", "123214.042500", "123214.652500", "123215.262500", "123215.872500", "123216.482500", "123217.092500", "123217.702500", "123218.312500", "123218.922500", "123219.532500", "123220.142500", "123220.752500", "123221.362500", "123221.972500", "123222.582500", "123223.192500", "123223.802500", "123224.412500", "123225.022500", "123225.632500", "123226.242500", "123226.852500", "123227.462500", "123228.072500", "123228.682500", "123229.292500", "123229.902500", "123230.512500", "123231.122500", "123231.732500", "123232.342500", "123232.952500", "123233.562500", "123234.172500", "123234.782500", "123235.392500", "123236.002500", "123236.612500", "123237.222500", "123237.832500", "123238.442500", "123239.052500", "123239.662500", "123240.272500", "123240.882500", "123241.492500", "123242.102500", "123242.712500", "123243.322500", "123243.932500", "123244.542500", "123245.152500", "123245.762500", "123246.372500", "123246.982500", "123247.592500", "123248.202500", "123248.812500", "123249.422500", "123250.032500", "123250.642500", "123251.252500", "123251.862500", "123252.472500", "123253.082500", "123253.692500", "123254.302500", "123254.912500", "123255.522500", "123256.132500", "123256.742500", "123257.352500", "123257.962500", "123258.572500", "123259.182500", "123259.792500", "123300.402500", "123301.012500", "123301.622500", "123302.232500", "123302.842500", "123303.452500", "123304.062500", "123304.672500", "123305.282500", "123305.892500", "123306.502500", "123307.112500", "123307.722500", "123308.332500", "123308.942500", "123309.552500", "123310.162500", "123310.772500", "123311.382500", "123311.992500", "123312.602500", "123313.212500", "123313.822500", "123314.432500", "123315.042500", "123315.652500", "123316.262500", "123316.872500", "123317.482500", "123318.092500", "123318.702500", "123319.312500", "123319.922500", "123320.532500", "123321.142500", "123321.752500", "123322.362500", "123322.972500", "123323.582500", "123324.192500", "123324.802500", "123325.412500", "123326.022500", "123326.632500", "123327.242500", "123327.852500", "123328.462500", "123329.072500", "123329.682500", "123330.292500", "123330.902500", "123331.512500", "123332.122500", "123332.732500", "123333.342500", "123333.952500", "123334.562500", "123335.172500", "123335.782500", "123336.392500", "123337.002500", "123337.612500", "123338.222500", "123338.832500", "123339.442500", "123340.052500", "123340.662500", "123341.272500", "123341.882500", "123342.492500", "123343.102500", "123343.712500", "123344.322500", "123344.932500", "123345.542500", "123346.152500", "123346.762500", "123347.372500", "123347.982500", "123348.592500", "123349.202500", "123349.812500", "123350.422500", "123351.032500", "123351.642500", "123352.252500", "123352.862500", "123353.472500", "123354.082500", "123354.692500", "123355.302500", "123355.912500", "123356.522500", "123357.132500", "123357.742500", "123358.352500", "123358.962500", "123359.572500", "123400.182500", "123400.792500", "123401.402500", "123402.012500", "123402.622500", "123403.232500", "123403.842500", "123404.452500", "123405.062500", "123405.672500", "123406.282500", "123406.892500", "123407.502500", "123408.112500", "123408.722500", "123409.332500", "123409.942500", "123410.552500", "123411.162500", "123411.772500", "123412.382500", "123412.992500", "123413.602500", "123414.212500"], "ContentTime": ["122933.237000", "122933.255000", "122933.257000", "122933.260000", "122933.262000", "122933.265000", "122933.267000", "122933.270000", "122933.272000", "122933.274000", "122933.279000", "122933.282000", "122933.284000", "122933.287000", "122933.290000", "122933.293000", "122933.295000", "122933.297000", "122933.300000", "122933.302000", "122933.305000", "122933.307000", "122933.310000", "122933.312000", "122933.314000", "122933.317000", "122933.319000", "122933.321000", "122933.324000", "122933.326000", "122933.328000", "122933.331000", "122933.340000", "122933.343000", "122933.345000", "122933.348000", "122933.350000", "122933.352000", "122933.355000", "122933.357000", "122933.359000", "122933.362000", "122933.364000", "122933.367000", "122933.369000", "122933.371000", "122933.374000", "122953.232000", "122953.235000", "122953.238000", "122953.240000", "122953.242000", "122953.245000", "122953.247000", "122953.249000", "122953.252000", "122953.254000", "122953.257000", "122953.259000", "122953.261000", "122953.264000", "122953.266000", "122953.269000", "122953.271000", "122953.274000", "122953.276000", "122953.279000", "122953.281000", "122953.284000", "122953.286000", "122953.288000", "122953.291000", "122953.293000", "122953.295000", "122953.298000", "122953.300000", "122953.302000", "122953.305000", "122953.307000", "122953.309000", "123013.232000", "123013.235000", "123013.237000", "123013.240000", "123013.242000", "123013.244000", "123013.247000", "123013.254000", "123013.257000", "123013.259000", "123013.262000", "123013.264000", "123013.266000", "123013.269000", "123013.271000", "123013.274000", "123013.276000", "123013.278000", "123013.281000", "123013.283000", "123013.285000", "123013.288000", "123013.290000", "123013.293000", "123013.295000", "123013.297000", "123013.300000", "123013.302000", "123013.304000", "123013.307000", "123013.309000", "123013.312000", "123013.314000", "123033.232000", "123033.235000", "123033.237000", "123033.240000", "123033.243000", "123033.245000", "123033.247000", "123033.250000", "123033.252000", "123033.255000", "123033.257000", "123033.259000", "123033.262000", "123033.264000", "123033.267000", "123033.269000", "123033.272000", "123033.274000", "123033.276000", "123033.279000", "123033.281000", "123033.283000", "123033.286000", "123033.288000", "123033.291000", "123033.293000", "123033.295000", "123033.298000", "123033.300000", "123033.302000", "123033.305000", "123033.307000", "123033.310000", "123053.233000", "123053.236000", "123053.238000", "123053.241000", "123053.243000", "123053.245000", "123053.248000", "123053.250000", "123053.253000", "123053.255000", "123053.257000", "123053.260000", "123053.262000", "123053.264000", "123053.267000", "123053.269000", "123053.271000", "123053.274000", "123053.276000", "123053.278000", "123053.281000", "123053.283000", "123053.286000", "123053.288000", "123053.291000", "123053.293000", "123053.295000", "123053.298000", "123053.300000", "123053.302000", "123053.305000", "123053.307000", "123053.310000", "123113.232000", "123113.235000", "123113.238000", "123113.240000", "123113.243000", "123113.245000", "123113.247000", "123113.250000", "123113.252000", "123113.255000", "123113.257000", "123113.259000", "123113.262000", "123113.264000", "123113.266000", "123113.269000", "123113.271000", "123113.274000", "123113.276000", "123113.278000", "123113.281000", "123113.283000", "123113.286000", "123113.288000", "123113.290000", "123113.293000", "123113.295000", "123113.298000", "123113.300000", "123113.302000", "123113.305000", "123113.307000", "123133.232000", "123133.235000", "123133.237000", "123133.239000", "123133.242000", "123133.244000", "123133.247000", "123133.249000", "123133.252000", "123133.254000", "123133.256000", "123133.259000", "123133.261000", "123133.264000", "123133.266000", "123133.268000", "123133.271000", "123133.273000", "123133.276000", "123133.278000", "123133.280000", "123133.283000", "123133.285000", "123133.287000", "123133.290000", "123133.292000", "123133.295000", "123133.297000", "123133.300000", "123133.302000", "123133.304000", "123133.307000", "123133.310000", "123153.232000", "123153.235000", "123153.237000", "123153.240000", "123153.242000", "123153.245000", "123153.247000", "123153.249000", "123153.252000", "123153.254000", "123153.257000", "123153.259000", "123153.261000", "123153.264000", "123153.266000", "123153.269000", "123153.271000", "123153.274000", "123153.276000", "123153.278000", "123153.281000", "123153.283000", "123153.285000", "123153.288000", "123153.290000", "123153.293000", "123153.295000", "123153.297000", "123153.300000", "123153.302000", "123153.305000", "123153.318000", "123153.321000", "123213.232000", "123213.235000", "123213.238000", "123213.241000", "123213.243000", "123213.245000", "123213.248000", "123213.250000", "123213.253000", "123213.255000", "123213.258000", "123213.260000", "123213.262000", "123213.265000", "123213.267000", "123213.270000", "123213.272000", "123213.275000", "123213.278000", "123213.280000", "123213.283000", "123213.285000", "123213.288000", "123213.290000", "123213.292000", "123213.295000", "123213.297000", "123213.300000", "123213.302000", "123213.304000", "123213.307000", "123213.309000", "123213.311000", "123233.232000", "123233.235000", "123233.238000", "123233.240000", "123233.243000", "123233.246000", "123233.248000", "123233.251000", "123233.253000", "123233.255000", "123233.258000", "123233.260000", "123233.263000", "123233.265000", "123233.267000", "123233.270000", "123233.272000", "123233.275000", "123233.277000", "123233.280000", "123233.282000", "123233.284000", "123233.287000", "123233.289000", "123233.292000", "123233.294000", "123233.296000", "123233.299000", "123233.301000", "123233.304000", "123233.306000", "123233.308000", "123253.232000", "123253.235000", "123253.237000", "123253.240000", "123253.242000", "123253.245000", "123253.247000", "123253.249000", "123253.252000", "123253.254000", "123253.256000", "123253.259000", "123253.261000", "123253.264000", "123253.266000", "123253.268000", "123253.271000", "123253.273000", "123253.276000", "123253.278000", "123253.280000", "123253.283000", "123253.285000", "123253.287000", "123253.290000", "123253.292000", "123253.295000", "123253.297000", "123253.299000", "123253.302000", "123253.304000", "123253.307000", "123253.309000", "123313.232000", "123313.235000", "123313.237000", "123313.240000", "123313.243000", "123313.245000", "123313.247000", "123313.250000", "123313.252000", "123313.255000", "123313.257000", "123313.259000", "123313.262000", "123313.264000", "123313.266000", "123313.269000", "123313.271000", "123313.274000", "123313.276000", "123313.278000", "123313.281000", "123313.283000", "123313.286000", "123313.288000", "123313.291000", "123313.293000", "123313.295000", "123313.298000", "123313.300000", "123313.303000", "123313.305000", "123313.307000", "123313.310000", "123333.232000", "123333.235000", "123333.237000", "123333.240000", "123333.242000", "123333.244000", "123333.247000", "123333.249000", "123333.252000", "123333.254000", "123333.257000", "123333.259000", "123333.261000", "123333.264000", "123333.266000", "123333.269000", "123333.271000", "123333.273000", "123333.276000", "123333.278000", "123333.280000", "123333.283000", "123333.285000", "123333.288000", "123333.290000", "123333.293000", "123333.295000", "123333.297000", "123333.300000", "123333.302000", "123333.305000", "123333.307000", "123333.309000", "123353.233000", "123353.235000", "123353.238000", "123353.240000", "123353.243000", "123353.245000", "123353.247000", "123353.250000", "123353.252000", "123353.254000", "123353.257000", "123353.259000", "123353.262000", "123353.264000", "123353.267000", "123353.269000", "123353.272000", "123353.274000", "123353.276000", "123353.279000", "123353.281000", "123353.283000", "123353.286000", "123353.288000", "123353.291000", "123353.293000", "123353.296000", "123353.298000", "123353.300000", "123353.303000", "123353.305000", "123353.308000", "123353.310000", "123413.232000", "123413.235000", "123413.237000", "123413.240000", "123413.242000", "123413.245000", "123413.247000", "123413.249000", "123413.252000", "123413.254000", "123413.257000", "123413.259000", "123413.262000", "123413.264000", "123413.266000", "123413.269000", "123413.271000", "123413.274000", "123413.276000", "123413.279000", "123413.281000", "123413.283000", "123413.286000", "123413.289000", "123413.291000", "123413.294000", "123413.296000", "123413.299000", "123413.301000", "123413.304000", "123413.306000", "123413.309000", "123415.090000", "123415.093000", "123415.095000", "123415.098000"], "InstanceCreationTime": ["122933.237000", "122933.255000", "122933.257000", "122933.260000", "122933.262000", "122933.265000", "122933.267000", "122933.270000", "122933.272000", "122933.274000", "122933.279000", "122933.282000", "122933.284000", "122933.287000", "122933.290000", "122933.293000", "122933.295000", "122933.297000", "122933.300000", "122933.302000", "122933.305000", "122933.307000", "122933.310000", "122933.312000", "122933.314000", "122933.317000", "122933.319000", "122933.321000", "122933.324000", "122933.326000", "122933.328000", "122933.331000", "122933.340000", "122933.343000", "122933.345000", "122933.348000", "122933.350000", "122933.352000", "122933.355000", "122933.357000", "122933.359000", "122933.362000", "122933.364000", "122933.367000", "122933.369000", "122933.371000", "122933.374000", "122953.232000", "122953.235000", "122953.238000", "122953.240000", "122953.242000", "122953.245000", "122953.247000", "122953.249000", "122953.252000", "122953.254000", "122953.257000", "122953.259000", "122953.261000", "122953.264000", "122953.266000", "122953.269000", "122953.271000", "122953.274000", "122953.276000", "122953.279000", "122953.281000", "122953.284000", "122953.286000", "122953.288000", "122953.291000", "122953.293000", "122953.295000", "122953.298000", "122953.300000", "122953.302000", "122953.305000", "122953.307000", "122953.309000", "123013.232000", "123013.235000", "123013.237000", "123013.240000", "123013.242000", "123013.244000", "123013.247000", "123013.254000", "123013.257000", "123013.259000", "123013.262000", "123013.264000", "123013.266000", "123013.269000", "123013.271000", "123013.274000", "123013.276000", "123013.278000", "123013.281000", "123013.283000", "123013.285000", "123013.288000", "123013.290000", "123013.293000", "123013.295000", "123013.297000", "123013.300000", "123013.302000", "123013.304000", "123013.307000", "123013.309000", "123013.312000", "123013.314000", "123033.232000", "123033.235000", "123033.237000", "123033.240000", "123033.243000", "123033.245000", "123033.247000", "123033.250000", "123033.252000", "123033.255000", "123033.257000", "123033.259000", "123033.262000", "123033.264000", "123033.267000", "123033.269000", "123033.272000", "123033.274000", "123033.276000", "123033.279000", "123033.281000", "123033.283000", "123033.286000", "123033.288000", "123033.291000", "123033.293000", "123033.295000", "123033.298000", "123033.300000", "123033.302000", "123033.305000", "123033.307000", "123033.310000", "123053.233000", "123053.236000", "123053.238000", "123053.241000", "123053.243000", "123053.245000", "123053.248000", "123053.250000", "123053.253000", "123053.255000", "123053.257000", "123053.260000", "123053.262000", "123053.264000", "123053.267000", "123053.269000", "123053.271000", "123053.274000", "123053.276000", "123053.278000", "123053.281000", "123053.283000", "123053.286000", "123053.288000", "123053.291000", "123053.293000", "123053.295000", "123053.298000", "123053.300000", "123053.302000", "123053.305000", "123053.307000", "123053.310000", "123113.232000", "123113.235000", "123113.238000", "123113.240000", "123113.243000", "123113.245000", "123113.247000", "123113.250000", "123113.252000", "123113.255000", "123113.257000", "123113.259000", "123113.262000", "123113.264000", "123113.266000", "123113.269000", "123113.271000", "123113.274000", "123113.276000", "123113.278000", "123113.281000", "123113.283000", "123113.286000", "123113.288000", "123113.290000", "123113.293000", "123113.295000", "123113.298000", "123113.300000", "123113.302000", "123113.305000", "123113.307000", "123133.232000", "123133.235000", "123133.237000", "123133.239000", "123133.242000", "123133.244000", "123133.247000", "123133.249000", "123133.252000", "123133.254000", "123133.256000", "123133.259000", "123133.261000", "123133.264000", "123133.266000", "123133.268000", "123133.271000", "123133.273000", "123133.276000", "123133.278000", "123133.280000", "123133.283000", "123133.285000", "123133.287000", "123133.290000", "123133.292000", "123133.295000", "123133.297000", "123133.300000", "123133.302000", "123133.304000", "123133.307000", "123133.310000", "123153.232000", "123153.235000", "123153.237000", "123153.240000", "123153.242000", "123153.245000", "123153.247000", "123153.249000", "123153.252000", "123153.254000", "123153.257000", "123153.259000", "123153.261000", "123153.264000", "123153.266000", "123153.269000", "123153.271000", "123153.274000", "123153.276000", "123153.278000", "123153.281000", "123153.283000", "123153.285000", "123153.288000", "123153.290000", "123153.293000", "123153.295000", "123153.297000", "123153.300000", "123153.302000", "123153.305000", "123153.318000", "123153.321000", "123213.232000", "123213.235000", "123213.238000", "123213.241000", "123213.243000", "123213.245000", "123213.248000", "123213.250000", "123213.253000", "123213.255000", "123213.258000", "123213.260000", "123213.262000", "123213.265000", "123213.267000", "123213.270000", "123213.272000", "123213.275000", "123213.278000", "123213.280000", "123213.283000", "123213.285000", "123213.288000", "123213.290000", "123213.292000", "123213.295000", "123213.297000", "123213.300000", "123213.302000", "123213.304000", "123213.307000", "123213.309000", "123213.311000", "123233.232000", "123233.235000", "123233.238000", "123233.240000", "123233.243000", "123233.246000", "123233.248000", "123233.251000", "123233.253000", "123233.255000", "123233.258000", "123233.260000", "123233.263000", "123233.265000", "123233.267000", "123233.270000", "123233.272000", "123233.275000", "123233.277