{"AcquisitionMatrixPE": 64, "AcquisitionNumber": 1, "AcquisitionTime": "12:57:3.200000", "BandwidthPerPixelPhaseEncode": 28.935, "BaseResolution": 64, "BodyPartExamined": "BRAIN", "CoilCombinationMethod": "Sum of Squares", "ConsistencyInfo": "N4_VE11E_LATEST_20181129", "ConversionSoftware": "dcm2niix", "ConversionSoftwareVersion": "v1.0.20230411", "DerivedVendorReportedEchoSpacing": 0.000540003, "DeviceSerialNumber": "166182", "DwellTime": 3.4e-06, "EchoTime": 0.032, "EchoTrainLength": 64, "EffectiveEchoSpacing": 0.000540003, "FlipAngle": 40, "HeudiconvVersion": "0.13.1", "ImageOrientationPatientDICOM": [0.996473, 0.0213951, -0.081137, -0.0177414, 0.998807, 0.045487], "ImageOrientationText": "Tra>Sag(-4.7)>Cor(2.5)", "ImageType": ["ORIGINAL", "PRIMARY", "M", "ND", "NORM", "MOSAIC"], "ImagingFrequency": 123.255602, "InPlanePhaseEncodingDirectionDICOM": "COL", "InstitutionAddress": "PEARSE STREET .,City,District,IE,D2", "InstitutionName": "TCIN", "InstitutionalDepartmentName": "MRI", "MRAcquisitionType": "2D", "MagneticFieldStrength": 3, "Manufacturer": "Siemens", "ManufacturersModelName": "Prisma", "Modality": "MR", "MultibandAccelerationFactor": 4, "NonlinearGradientCorrection": false, "PartialFourier": 1, "PatientPosition": "HFS", "PercentPhaseFOV": 100, "PercentSampling": 100, "PhaseEncodingDirection": "j-", "PhaseEncodingSteps": 64, "PhaseResolution": 1, "PixelBandwidth": 2300, "ProcedureStepDescription": "Rhodri^Head BOLD", "ProtocolName": "cmrr_mbep2d_Pictures_AP_RDS", "PulseSequenceDetails": "%SiemensSeq%\\ep2d_bold", "ReceiveCoilActiveElements": "HC2,4,6,7;SC", "ReceiveCoilName": "SpecialPurpose_4", "ReconMatrixPE": 64, "RefLinesPE": 12, "RepetitionTime": 0.61, "SAR": 0.304211, "ScanOptions": "FS", "ScanningSequence": "EP", "SequenceName": "*epfid2d1_64", "SequenceVariant": "SK", "SeriesDescription": "cmrr_mbep2d_Pictures_AP_RDS", "SeriesNumber": 13, "ShimSetting": [-3641, -7484, 3750, 1089, 44, 180, 18, 208], "SliceThickness": 3, "SliceTiming": [0.26, 0, 0.3275, 0.065, 0.3925, 0.13, 0.4575, 0.195, 0.5225, 0.26, 0, 0.3275, 0.065, 0.3925, 0.13, 0.4575, 0.195, 0.5225, 0.26, 0, 0.3275, 0.065, 0.3925, 0.13, 0.4575, 0.195, 0.5225, 0.26, 0, 0.3275, 0.065, 0.3925, 0.13, 0.4575, 0.195, 0.5225], "SoftwareVersions": "syngo MR E11", "SpacingBetweenSlices": 3.3, "StationName": "AWP166182", "TaskName": "pictures", "TotalReadoutTime": 0.0340202, "TxRefAmp": 246.051, "dcmmeta_affine": [[-2.989419937133789, -0.053224340081214905, -0.2706441879272461, 100.75093841552734], [-0.06418520957231522, 2.996422052383423, 0.14482739567756653, -99.70536804199219], [-0.2434108704328537, -0.13646098971366882, 3.2856926918029785, -91.05809783935547], [0.0, 0.0, 0.0, 1.0]], "dcmmeta_reorient_transform": [[0.0, -1.0, 0.0, 63.0], [1.0, 0.0, 0.0, 0.0], [0.0, 0.0, 1.0, 0.0], [0.0, 0.0, 0.0, 1.0]], "dcmmeta_shape": [64, 64, 36, 510], "dcmmeta_slice_dim": 2, "dcmmeta_version": 0.6, "global": {"const": {"AcquisitionMatrix": [64, 0, 0, 64], "AngioFlag": "N", "BitsAllocated": 16, "BitsStored": 12, "BodyPartExamined": "BRAIN", "Columns": 384, "EchoNumbers": 1, "EchoTime": 32.0, "EchoTrainLength": 64, "FlipAngle": 40.0, "HighBit": 11, "ImageOrientationPatient": [0.99647330383047, 0.02139507036876, -0.0811369565432, -0.0177414463697, 0.99880737596341, 0.04548699596363], "ImagePositionPatient": [-567.1890957672, -578.76639748607, -82.54316024276], "ImageType": ["ORIGINAL", "PRIMARY", "M", "ND", "NORM", "MOSAIC"], "ImagedNucleus": "1H", "ImagingFrequency": 123.255602, "InPlanePhaseEncodingDirection": "COL", "MRAcquisitionType": "2D", "MagneticFieldStrength": 3.0, "Manufacturer": "SIEMENS", "ManufacturerModelName": "Prisma", "Modality": "MR", "NumberOfAverages": 1.0, "NumberOfPhaseEncodingSteps": 64, "PercentPhaseFieldOfView": 100.0, "PercentSampling": 100.0, "PerformedProcedureStepStartTime": "122209.650000", "PhotometricInterpretation": "MONOCHROME2", "PixelBandwidth": 2300.0, "PixelRepresentation": 0, "PixelSpacing": [3.0, 3.0], "ProtocolName": "cmrr_mbep2d_Pictures_AP_RDS", "RepetitionTime": 610.0, "Rows": 384, "SAR": 0.30421091780245, "SamplesPerPixel": 1, "ScanOptions": "FS", "ScanningSequence": "EP", "SequenceName": "*epfid2d1_64", "SequenceVariant": "SK", "SeriesDescription": "cmrr_mbep2d_Pictures_AP_RDS", "SeriesNumber": 13, "SeriesTime": "125729.844000", "SliceLocation": -103.30201788383, "SliceThickness": 3.0, "SmallestImagePixelValue": 0, "SoftwareVersions": "syngo MR E11", "SpacingBetweenSlices": 3.2999999453409, "SpecificCharacterSet": "ISO_IR 100", "StudyID": "1", "StudyTime": "122209.489000", "TransmitCoilName": "Body", "VariableFlipAngleFlag": "N", "WindowCenterWidthExplanation": "Algo1"}, "slices": {}}, "time": {"samples": {"AcquisitionNumber": [1, 2, 3, 4, 5, 6, 7, 8, 9, 10, 11, 12, 13, 14, 15, 16, 17, 18, 19, 20, 21, 22, 23, 24, 25, 26, 27, 28, 29, 30, 31, 32, 33, 34, 35, 36, 37, 38, 39, 40, 41, 42, 43, 44, 45, 46, 47, 48, 49, 50, 51, 52, 53, 54, 55, 56, 57, 58, 59, 60, 61, 62, 63, 64, 65, 66, 67, 68, 69, 70, 71, 72, 73, 74, 75, 76, 77, 78, 79, 80, 81, 82, 83, 84, 85, 86, 87, 88, 89, 90, 91, 92, 93, 94, 95, 96, 97, 98, 99, 100, 101, 102, 103, 104, 105, 106, 107, 108, 109, 110, 111, 112, 113, 114, 115, 116, 117, 118, 119, 120, 121, 122, 123, 124, 125, 126, 127, 128, 129, 130, 131, 132, 133, 134, 135, 136, 137, 138, 139, 140, 141, 142, 143, 144, 145, 146, 147, 148, 149, 150, 151, 152, 153, 154, 155, 156, 157, 158, 159, 160, 161, 162, 163, 164, 165, 166, 167, 168, 169, 170, 171, 172, 173, 174, 175, 176, 177, 178, 179, 180, 181, 182, 183, 184, 185, 186, 187, 188, 189, 190, 191, 192, 193, 194, 195, 196, 197, 198, 199, 200, 201, 202, 203, 204, 205, 206, 207, 208, 209, 210, 211, 212, 213, 214, 215, 216, 217, 218, 219, 220, 221, 222, 223, 224, 225, 226, 227, 228, 229, 230, 231, 232, 233, 234, 235, 236, 237, 238, 239, 240, 241, 242, 243, 244, 245, 246, 247, 248, 249, 250, 251, 252, 253, 254, 255, 256, 257, 258, 259, 260, 261, 262, 263, 264, 265, 266, 267, 268, 269, 270, 271, 272, 273, 274, 275, 276, 277, 278, 279, 280, 281, 282, 283, 284, 285, 286, 287, 288, 289, 290, 291, 292, 293, 294, 295, 296, 297, 298, 299, 300, 301, 302, 303, 304, 305, 306, 307, 308, 309, 310, 311, 312, 313, 314, 315, 316, 317, 318, 319, 320, 321, 322, 323, 324, 325, 326, 327, 328, 329, 330, 331, 332, 333, 334, 335, 336, 337, 338, 339, 340, 341, 342, 343, 344, 345, 346, 347, 348, 349, 350, 351, 352, 353, 354, 355, 356, 357, 358, 359, 360, 361, 362, 363, 364, 365, 366, 367, 368, 369, 370, 371, 372, 373, 374, 375, 376, 377, 378, 379, 380, 381, 382, 383, 384, 385, 386, 387, 388, 389, 390, 391, 392, 393, 394, 395, 396, 397, 398, 399, 400, 401, 402, 403, 404, 405, 406, 407, 408, 409, 410, 411, 412, 413, 414, 415, 416, 417, 418, 419, 420, 421, 422, 423, 424, 425, 426, 427, 428, 429, 430, 431, 432, 433, 434, 435, 436, 437, 438, 439, 440, 441, 442, 443, 444, 445, 446, 447, 448, 449, 450, 451, 452, 453, 454, 455, 456, 457, 458, 459, 460, 461, 462, 463, 464, 465, 466, 467, 468, 469, 470, 471, 472, 473, 474, 475, 476, 477, 478, 479, 480, 481, 482, 483, 484, 485, 486, 487, 488, 489, 490, 491, 492, 493, 494, 495, 496, 497, 498, 499, 500, 501, 502, 503, 504, 505, 506, 507, 508, 509, 510], "AcquisitionTime": ["125703.200000", "125703.810000", "125704.420000", "125705.030000", "125705.640000", "125706.250000", "125706.860000", "125707.470000", "125708.080000", "125708.690000", "125709.300000", "125709.910000", "125710.520000", "125711.130000", "125711.740000", "125712.350000", "125712.960000", "125713.570000", "125714.180000", "125714.790000", "125715.400000", "125716.010000", "125716.620000", "125717.230000", "125717.840000", "125718.450000", "125719.060000", "125719.670000", "125720.280000", "125720.890000", "125721.500000", "125722.110000", "125722.720000", "125723.330000", "125723.940000", "125724.550000", "125725.160000", "125725.770000", "125726.380000", "125726.990000", "125727.600000", "125728.210000", "125728.820000", "125729.430000", "125730.040000", "125730.650000", "125731.260000", "125731.870000", "125732.480000", "125733.090000", "125733.700000", "125734.310000", "125734.920000", "125735.530000", "125736.140000", "125736.750000", "125737.360000", "125737.970000", "125738.580000", "125739.190000", "125739.800000", "125740.410000", "125741.020000", "125741.630000", "125742.240000", "125742.850000", "125743.460000", "125744.070000", "125744.680000", "125745.290000", "125745.900000", "125746.510000", "125747.120000", "125747.730000", "125748.340000", "125748.950000", "125749.560000", "125750.170000", "125750.780000", "125751.390000", "125752.000000", "125752.610000", "125753.220000", "125753.830000", "125754.440000", "125755.050000", "125755.660000", "125756.270000", "125756.880000", "125757.490000", "125758.100000", "125758.710000", "125759.320000", "125759.930000", "125800.540000", "125801.150000", "125801.760000", "125802.370000", "125802.980000", "125803.590000", "125804.200000", "125804.810000", "125805.420000", "125806.030000", "125806.640000", "125807.250000", "125807.860000", "125808.470000", "125809.080000", "125809.690000", "125810.300000", "125810.910000", "125811.520000", "125812.130000", "125812.740000", "125813.350000", "125813.960000", "125814.570000", "125815.180000", "125815.790000", "125816.400000", "125817.010000", "125817.620000", "125818.230000", "125818.840000", "125819.450000", "125820.060000", "125820.670000", "125821.280000", "125821.890000", "125822.500000", "125823.110000", "125823.720000", "125824.330000", "125824.940000", "125825.550000", "125826.160000", "125826.770000", "125827.380000", "125827.990000", "125828.600000", "125829.210000", "125829.820000", "125830.430000", "125831.040000", "125831.650000", "125832.260000", "125832.870000", "125833.480000", "125834.090000", "125834.700000", "125835.310000", "125835.920000", "125836.530000", "125837.140000", "125837.750000", "125838.360000", "125838.970000", "125839.580000", "125840.190000", "125840.800000", "125841.410000", "125842.020000", "125842.630000", "125843.240000", "125843.850000", "125844.460000", "125845.070000", "125845.680000", "125846.290000", "125846.900000", "125847.510000", "125848.120000", "125848.730000", "125849.340000", "125849.950000", "125850.560000", "125851.170000", "125851.780000", "125852.390000", "125853.000000", "125853.610000", "125854.220000", "125854.830000", "125855.440000", "125856.050000", "125856.660000", "125857.270000", "125857.880000", "125858.490000", "125859.100000", "125859.710000", "125900.320000", "125900.930000", "125901.540000", "125902.150000", "125902.760000", "125903.370000", "125903.980000", "125904.590000", "125905.200000", "125905.810000", "125906.420000", "125907.030000", "125907.640000", "125908.250000", "125908.860000", "125909.470000", "125910.080000", "125910.690000", "125911.300000", "125911.910000", "125912.520000", "125913.130000", "125913.740000", "125914.350000", "125914.960000", "125915.570000", "125916.180000", "125916.790000", "125917.400000", "125918.010000", "125918.620000", "125919.230000", "125919.840000", "125920.450000", "125921.060000", "125921.670000", "125922.280000", "125922.890000", "125923.500000", "125924.110000", "125924.720000", "125925.330000", "125925.940000", "125926.550000", "125927.160000", "125927.770000", "125928.380000", "125928.990000", "125929.600000", "125930.210000", "125930.820000", "125931.430000", "125932.040000", "125932.650000", "125933.260000", "125933.870000", "125934.480000", "125935.090000", "125935.700000", "125936.310000", "125936.920000", "125937.530000", "125938.140000", "125938.750000", "125939.360000", "125939.970000", "125940.580000", "125941.190000", "125941.800000", "125942.410000", "125943.020000", "125943.630000", "125944.240000", "125944.850000", "125945.460000", "125946.070000", "125946.680000", "125947.290000", "125947.900000", "125948.510000", "125949.120000", "125949.730000", "125950.340000", "125950.950000", "125951.560000", "125952.170000", "125952.780000", "125953.390000", "125954.000000", "125954.610000", "125955.220000", "125955.830000", "125956.440000", "125957.050000", "125957.660000", "125958.270000", "125958.880000", "125959.490000", "130000.100000", "130000.710000", "130001.320000", "130001.930000", "130002.540000", "130003.150000", "130003.760000", "130004.370000", "130004.980000", "130005.590000", "130006.200000", "130006.810000", "130007.420000", "130008.030000", "130008.640000", "130009.250000", "130009.860000", "130010.470000", "130011.080000", "130011.690000", "130012.300000", "130012.910000", "130013.520000", "130014.130000", "130014.740000", "130015.350000", "130015.960000", "130016.570000", "130017.180000", "130017.790000", "130018.400000", "130019.010000", "130019.620000", "130020.230000", "130020.840000", "130021.450000", "130022.060000", "130022.670000", "130023.280000", "130023.890000", "130024.500000", "130025.110000", "130025.720000", "130026.330000", "130026.940000", "130027.550000", "130028.160000", "130028.770000", "130029.380000", "130029.990000", "130030.600000", "130031.210000", "130031.820000", "130032.430000", "130033.040000", "130033.650000", "130034.260000", "130034.870000", "130035.480000", "130036.090000", "130036.700000", "130037.310000", "130037.920000", "130038.530000", "130039.140000", "130039.750000", "130040.360000", "130040.970000", "130041.580000", "130042.190000", "130042.800000", "130043.410000", "130044.020000", "130044.630000", "130045.240000", "130045.850000", "130046.460000", "130047.070000", "130047.680000", "130048.290000", "130048.900000", "130049.510000", "130050.120000", "130050.730000", "130051.340000", "130051.950000", "130052.560000", "130053.170000", "130053.780000", "130054.390000", "130055.000000", "130055.610000", "130056.220000", "130056.830000", "130057.440000", "130058.050000", "130058.660000", "130059.270000", "130059.880000", "130100.490000", "130101.100000", "130101.710000", "130102.320000", "130102.930000", "130103.540000", "130104.150000", "130104.760000", "130105.370000", "130105.980000", "130106.590000", "130107.200000", "130107.810000", "130108.420000", "130109.030000", "130109.640000", "130110.250000", "130110.860000", "130111.470000", "130112.080000", "130112.690000", "130113.300000", "130113.910000", "130114.520000", "130115.130000", "130115.740000", "130116.350000", "130116.960000", "130117.570000", "130118.180000", "130118.790000", "130119.400000", "130120.010000", "130120.620000", "130121.230000", "130121.840000", "130122.450000", "130123.060000", "130123.670000", "130124.280000", "130124.890000", "130125.500000", "130126.110000", "130126.720000", "130127.330000", "130127.940000", "130128.550000", "130129.160000", "130129.770000", "130130.380000", "130130.990000", "130131.600000", "130132.210000", "130132.820000", "130133.430000", "130134.040000", "130134.650000", "130135.260000", "130135.870000", "130136.480000", "130137.090000", "130137.700000", "130138.310000", "130138.920000", "130139.530000", "130140.140000", "130140.750000", "130141.360000", "130141.970000", "130142.580000", "130143.190000", "130143.800000", "130144.410000", "130145.020000", "130145.630000", "130146.240000", "130146.850000", "130147.460000", "130148.070000", "130148.680000", "130149.290000", "130149.900000", "130150.510000", "130151.120000", "130151.730000", "130152.340000", "130152.950000", "130153.560000", "130154.170000", "130154.780000", "130155.390000", "130156.000000", "130156.610000", "130157.220000", "130157.830000", "130158.440000", "130159.050000", "130159.660000", "130200.270000", "130200.880000", "130201.490000", "130202.100000", "130202.710000", "130203.320000", "130203.930000", "130204.540000", "130205.150000", "130205.760000", "130206.370000", "130206.980000", "130207.590000", "130208.200000", "130208.810000", "130209.420000", "130210.030000", "130210.640000", "130211.250000", "130211.860000", "130212.470000", "130213.080000", "130213.690000"], "ContentTime": ["125729.848000", "125729.851000", "125729.853000", "125729.856000", "125729.859000", "125729.861000", "125729.863000", "125729.870000", "125729.872000", "125729.874000", "125729.877000", "125729.879000", "125729.881000", "125729.884000", "125729.889000", "125729.892000", "125729.894000", "125729.896000", "125729.899000", "125729.901000", "125729.903000", "125729.906000", "125729.908000", "125729.910000", "125729.913000", "125729.915000", "125729.918000", "125729.920000", "125729.922000", "125729.925000", "125729.927000", "125729.929000", "125729.932000", "125729.934000", "125729.936000", "125729.939000", "125729.941000", "125729.944000", "125729.946000", "125729.948000", "125729.950000", "125729.953000", "125749.843000", "125749.846000", "125749.848000", "125749.850000", "125749.853000", "125749.855000", "125749.858000", "125749.860000", "125749.862000", "125749.865000", "125749.867000", "125749.869000", "125749.871000", "125749.874000", "125749.876000", "125749.879000", "125749.881000", "125749.883000", "125749.886000", "125749.888000", "125749.890000", "125749.893000", "125749.895000", "125749.897000", "125749.900000", "125749.902000", "125749.904000", "125749.907000", "125749.909000", "125749.911000", "125749.914000", "125749.916000", "125749.918000", "125809.843000", "125809.846000", "125809.848000", "125809.851000", "125809.853000", "125809.855000", "125809.858000", "125809.860000", "125809.862000", "125809.865000", "125809.867000", "125809.869000", "125809.872000", "125809.874000", "125809.876000", "125809.879000", "125809.881000", "125809.883000", "125809.886000", "125809.888000", "125809.891000", "125809.893000", "125809.895000", "125809.898000", "125809.900000", "125809.902000", "125809.905000", "125809.907000", "125809.909000", "125809.912000", "125809.914000", "125809.916000", "125809.919000", "125829.843000", "125829.846000", "125829.852000", "125829.855000", "125829.857000", "125829.860000", "125829.862000", "125829.864000", "125829.867000", "125829.869000", "125829.871000", "125829.874000", "125829.876000", "125829.878000", "125829.881000", "125829.883000", "125829.885000", "125829.887000", "125829.890000", "125829.892000", "125829.895000", "125829.897000", "125829.899000", "125829.902000", "125829.904000", "125829.906000", "125829.909000", "125829.911000", "125829.914000", "125829.916000", "125829.918000", "125829.921000", "125829.923000", "125849.842000", "125849.845000", "125849.847000", "125849.850000", "125849.852000", "125849.854000", "125849.857000", "125849.859000", "125849.861000", "125849.864000", "125849.866000", "125849.868000", "125849.871000", "125849.873000", "125849.875000", "125849.878000", "125849.880000", "125849.882000", "125849.885000", "125849.887000", "125849.889000", "125849.892000", "125849.894000", "125849.896000", "125849.899000", "125849.901000", "125849.903000", "125849.906000", "125849.908000", "125849.910000", "125849.913000", "125849.915000", "125909.843000", "125909.846000", "125909.848000", "125909.851000", "125909.853000", "125909.855000", "125909.858000", "125909.860000", "125909.869000", "125909.872000", "125909.874000", "125909.876000", "125909.879000", "125909.881000", "125909.883000", "125909.886000", "125909.888000", "125909.891000", "125909.893000", "125909.895000", "125909.898000", "125909.901000", "125909.903000", "125909.905000", "125909.908000", "125909.910000", "125909.912000", "125909.915000", "125909.917000", "125909.919000", "125909.922000", "125909.924000", "125909.927000", "125929.843000", "125929.846000", "125929.848000", "125929.850000", "125929.853000", "125929.855000", "125929.858000", "125929.860000", "125929.862000", "125929.865000", "125929.867000", "125929.870000", "125929.872000", "125929.874000", "125929.877000", "125929.879000", "125929.881000", "125929.884000", "125929.886000", "125929.889000", "125929.891000", "125929.893000", "125929.896000", "125929.898000", "125929.900000", "125929.903000", "125929.905000", "125929.908000", "125929.910000", "125929.912000", "125929.915000", "125929.917000", "125929.919000", "125949.843000", "125949.846000", "125949.848000", "125949.851000", "125949.853000", "125949.856000", "125949.858000", "125949.860000", "125949.863000", "125949.865000", "125949.868000", "125949.870000", "125949.872000", "125949.875000", "125949.877000", "125949.879000", "125949.882000", "125949.884000", "125949.886000", "125949.889000", "125949.891000", "125949.893000", "125949.896000", "125949.898000", "125949.900000", "125949.903000", "125949.916000", "125949.919000", "125949.921000", "125949.924000", "125949.926000", "125949.929000", "125949.931000", "130009.843000", "130009.846000", "130009.848000", "130009.851000", "130009.853000", "130009.855000", "130009.858000", "130009.860000", "130009.862000", "130009.865000", "130009.867000", "130009.870000", "130009.872000", "130009.874000", "130009.877000", "130009.879000", "130009.881000", "130009.884000", "130009.886000", "130009.888000", "130009.891000", "130009.893000", "130009.895000", "130009.898000", "130009.900000", "130009.903000", "130009.905000", "130009.907000", "130009.910000", "130009.912000", "130009.914000", "130009.917000", "130009.919000", "130029.843000", "130029.846000", "130029.848000", "130029.851000", "130029.853000", "130029.855000", "130029.858000", "130029.860000", "130029.862000", "130029.865000", "130029.867000", "130029.870000", "130029.872000", "130029.874000", "130029.877000", "130029.879000", "130029.881000", "130029.884000", "130029.886000", "130029.888000", "130029.891000", "130029.893000", "130029.896000", "130029.898000", "130029.900000", "130029.903000", "130029.905000", "130029.907000", "130029.910000", "130029.912000", "130029.914000", "130029.917000", "130049.843000", "130049.846000", "130049.856000", "130049.858000", "130049.861000", "130049.863000", "130049.866000", "130049.868000", "130049.870000", "130049.873000", "130049.875000", "130049.877000", "130049.880000", "130049.882000", "130049.884000", "130049.887000", "130049.889000", "130049.892000", "130049.894000", "130049.896000", "130049.899000", "130049.901000", "130049.903000", "130049.906000", "130049.908000", "130049.910000", "130049.913000", "130049.915000", "130049.918000", "130049.920000", "130049.922000", "130049.925000", "130049.928000", "130109.843000", "130109.845000", "130109.848000", "130109.850000", "130109.852000", "130109.855000", "130109.857000", "130109.859000", "130109.862000", "130109.864000", "130109.867000", "130109.869000", "130109.871000", "130109.874000", "130109.876000", "130109.878000", "130109.881000", "130109.883000", "130109.886000", "130109.888000", "130109.891000", "130109.893000", "130109.895000", "130109.898000", "130109.900000", "130109.902000", "130109.905000", "130109.907000", "130109.910000", "130109.912000", "130109.915000", "130109.917000", "130109.919000", "130129.844000", "130129.846000", "130129.848000", "130129.851000", "130129.853000", "130129.856000", "130129.858000", "130129.860000", "130129.869000", "130129.871000", "130129.873000", "130129.876000", "130129.878000", "130129.880000", "130129.883000", "130129.885000", "130129.887000", "130129.890000", "130129.892000", "130129.895000", "130129.897000", "130129.899000", "130129.902000", "130129.904000", "130129.906000", "130129.909000", "130129.911000", "130129.914000", "130129.916000", "130129.918000", "130129.921000", "130129.923000", "130129.926000", "130149.843000", "130149.846000", "130149.848000", "130149.851000", "130149.853000", "130149.856000", "130149.858000", "130149.861000", "130149.863000", "130149.866000", "130149.868000", "130149.870000", "130149.873000", "130149.875000", "130149.878000", "130149.881000", "130149.883000", "130149.886000", "130149.888000", "130149.891000", "130149.893000", "130149.896000", "130149.898000", "130149.900000", "130149.903000", "130149.905000", "130149.907000", "130149.910000", "130149.912000", "130149.915000", "130149.917000", "130149.919000", "130209.843000", "130209.847000", "130209.850000", "130209.852000", "130209.854000", "130209.857000", "130209.859000", "130209.862000", "130209.864000", "130209.866000", "130209.869000", "130209.871000", "130209.874000", "130209.876000", "130209.878000", "130209.881000", "130209.883000", "130209.885000", "130209.888000", "130209.890000", "130209.892000", "130209.895000", "130209.897000", "130209.909000", "130209.912000", "130209.914000", "130209.917000", "130209.919000", "130209.922000", "130209.924000", "130209.926000", "130209.929000", "130209.931000", "130214.856000", "130214.859000", "130214.861000", "130214.863000", "130214.866000", "130214.868000", "130214.871000", "130214.873000", "130214.875000"], "InstanceCreationTime": ["125729.848000", "125729.851000", "125729.853000", "125729.856000", "125729.859000", "125729.861000", "125729.863000", "125729.870000", "125729.872000", "125729.874000", "125729.877000", "125729.879000", "125729.881000", "125729.884000", "125729.889000", "125729.892000", "125729.894000", "125729.896000", "125729.899000", "125729.901000", "125729.903000", "125729.906000", "125729.908000", "125729.910000", "125729.913000", "125729.915000", "125729.918000", "125729.920000", "125729.922000", "125729.925000", "125729.927000", "125729.929000", "125729.932000", "125729.934000", "125729.936000", "125729.939000", "125729.941000", "125729.944000", "125729.946000", "125729.948000", "125729.950000", "125729.953000", "125749.843000", "125749.846000", "125749.848000", "125749.850000", "125749.853000", "125749.855000", "125749.858000", "125749.860000", "125749.862000", "125749.865000", "125749.867000", "125749.869000", "125749.871000", "125749.874000", "125749.876000", "125749.879000", "125749.881000", "125749.883000", "125749.886000", "125749.888000", "125749.890000", "125749.893000", "125749.895000", "125749.897000", "125749.900000", "125749.902000", "125749.904000", "125749.907000", "125749.909000", "125749.911000", "125749.914000", "125749.916000", "125749.918000", "125809.843000", "125809.846000", "125809.848000", "125809.851000", "125809.853000", "125809.855000", "125809.858000", "125809.860000", "125809.862000", "125809.865000", "125809.867000", "125809.869000", "125809.872000", "125809.874000", "125809.876000", "125809.879000", "125809.881000", "125809.883000", "125809.886000", "125809.888000", "125809.891000", "125809.893000", "125809.895000", "125809.898000", "125809.900000", "125809.902000", "125809.905000", "125809.907000", "125809.909000", "125809.912000", "125809.914000", "125809.916000", "125809.919000", "125829.843000", "125829.846000", "125829.852000", "125829.855000", "125829.857000", "125829.860000", "125829.862000", "125829.864000", "125829.867000", "125829.869000", "125829.871000", "125829.874000", "125829.876000", "125829.878000", "125829.881000", "125829.883000", "125829.885000", "125829.887000", "125829.890000", "125829.892000", "125829.895000", "125829.897000", "125829.899000", "125829.902000", "125829.904000", "125829.906000", "125829.909000", "125829.911000", "125829.914000", "125829.916000", "125829.918000", "125829.921000", "125829.923000", "125849.842000", "125849.845000", "125849.847000", "125849.850000", "125849.852000", "125849.854000", "125849.857000", "125849.859000", "125849.861000", "125849.864000", "125849.866000", "125849.868000", "125849.871000", "125849.873000", "125849.875000", "125849.878000", "125849.880000", "125849.882000", "125849.885000", "125849.887000", "125849.889000", "125849.892000", "125849.894000", "125849.896000", "125849.899000", "125849.901000", "125849.903000", "125849.906000", "125849.908000", "125849.910000", "125849.913000", "125849.915000", "125909.843000", "125909.846000", "125909.848000", "125909.851000", "125909.853000", "125909.855000", "125909.858000", "125909.860000", "125909.869000", "125909.872000", "125909.874000", "125909.876000", "125909.879000", "125909.881000", "125909.883000", "125909.886000", "125909.888000", "125909.891000", "125909.893000", "125909.895000", "125909.898000", "125909.901000", "125909.903000", "125909.905000", "125909.908000", "125909.910000", "125909.912000", "125909.915000", "125909.917000", "125909.919000", "125909.922000", "125909.924000", "125909.927000", "125929.843000", "125929.846000", "125929.848000", "125929.850000", "125929.853000", "125929.855000", "125929.858000", "125929.860000", "125929.862000", "125929.865000", "125929.867000", "125929.870000", "125929.872000", "125929.874000", "125929.877000", "125929.879000", "125929.881000", "125929.884000", "125929.886000", "125929.889000", "125929.891000", "125929.893000", "125929.896000", "125929.898000", "125929.900000", "125929.903000", "125929.905000", "125929.908000", "125929.910000", "125929.912000", "125929.915000", "125929.917000", "125929.919000", "125949.843000", "125949.846000", "125949.848000", "125949.851000", "125949.853000", "125949.856000", "125949.858000", "125949.860000", "125949.863000", "125949.865000", "125949.868000", "125949.870000", "125949.872000", "125949.875000", "125949.877000", "125949.879000", "125949.882000", "125949.884000", "125949.886000", "125949.889000", "125949.891000", "125949.893000", "125949.896000", "125949.898000", "125949.900000", "125949.903000", "125949.916000", "125949.919000", "125949.921000", "125949.924000", "125949.926000", "125949.929000", "125949.931000", "130009.843000", "130009.846000", "130009.848000", "130009.851000", "130009.853000", "130009.855000", "130009.858000", "130009.860000", "130009.862000", "130009.865000", "130009.867000", "130009.870000", "130009.872000", "130009.874000", "130009.877000", "130009.879000", "130009.881000", "130009.884000", "130009.886000", "130009.888000", "130009.891000", "130009.893000", "130009.895000", "130009.898000", "130009.900000", "130009.903000", "130009.905000", "130009.907000", "130009.910000", "130009.912000", "130009.914000", "130009.917000", "130009.919000", "130029.843000", "130029.846000", "130029.848000", "130029.851000", "130029.853000", "130029.855000", "130029.858000", "130029.860000", "130029.862000", "130029.865000", "130029.867000", "130029.870000", "130029.872000", "130029.874000", "130029.877000", "