{"AcquisitionMatrixPE": 64, "AcquisitionNumber": 1, "AcquisitionTime": "12:02:18.707500", "BandwidthPerPixelPhaseEncode": 28.935, "BaseResolution": 64, "BodyPartExamined": "BRAIN", "CoilString": "HC2_4_6_7", "ConsistencyInfo": "N4_VE11E_LATEST_20181129", "ConversionSoftware": "dcm2niix", "ConversionSoftwareVersion": "v1.0.20190902", "DerivedVendorReportedEchoSpacing": 0.000540003, "DeviceSerialNumber": "166182", "DwellTime": 3.4e-06, "EchoTime": 0.032, "EchoTrainLength": 64, "EffectiveEchoSpacing": 0.000540003, "FlipAngle": 40, "ImageOrientationPatientDICOM": [0.99503, -0.0986023, 0.0138543, 0.0993173, 0.992765, -0.0674745], "ImageType": ["ORIGINAL", "PRIMARY", "M", "ND", "NORM", "MOSAIC"], "ImagingFrequency": 123.256, "InPlanePhaseEncodingDirectionDICOM": "COL", "InstitutionAddress": "PEARSE_STREET_._City_District_IE_D2", "InstitutionName": "TCIN", "InstitutionalDepartmentName": "MRI", "MRAcquisitionType": "2D", "MagneticFieldStrength": 3, "Manufacturer": "Siemens", "ManufacturersModelName": "Prisma", "Modality": "MR", "MultibandAccelerationFactor": 4, "PartialFourier": 1, "PatientPosition": "HFS", "PercentPhaseFOV": 100, "PhaseEncodingDirection": "j-", "PhaseEncodingSteps": 64, "PhaseResolution": 1, "PixelBandwidth": 2300, "ProcedureStepDescription": "Rhodri_Head_BOLD", "ProtocolName": "cmrr_mbep2d_Pictures_AP_RDS", "PulseSequenceDetails": "%SiemensSeq%_ep2d_bold", "ReceiveCoilActiveElements": "HC2,4,6,7", "ReceiveCoilName": "HeadNeck_64", "ReconMatrixPE": 64, "RefLinesPE": 12, "RepetitionTime": 0.61, "SAR": 0.192928, "ScanOptions": "FS", "ScanningSequence": "EP", "SequenceName": "_epfid2d1_64", "SequenceVariant": "SK", "SeriesDescription": "cmrr_mbep2d_Pictures_AP_RDS", "SeriesNumber": 6, "ShimSetting": [-3607, -7546, 3696, 1027, -87, 491, 235, -1], "SliceThickness": 3, "SliceTiming": [0.2625, 0, 0.3275, 0.065, 0.3925, 0.13, 0.4575, 0.1975, 0.525, 0.2625, 0, 0.3275, 0.065, 0.3925, 0.13, 0.4575, 0.1975, 0.525, 0.2625, 0, 0.3275, 0.065, 0.3925, 0.13, 0.4575, 0.1975, 0.525, 0.2625, 0, 0.3275, 0.065, 0.3925, 0.13, 0.4575, 0.1975, 0.525], "SoftwareVersions": "syngo_MR_E11", "SpacingBetweenSlices": 3.3, "StationName": "AWP166182", "TaskName": "pictures", "TotalReadoutTime": 0.0340202, "TxRefAmp": 251.362, "dcmmeta_affine": [[-2.9850914478302, 0.2979518175125122, 0.02343299612402916, 88.92061614990234], [0.29580673575401306, 2.9782962799072266, -0.22610007226467133, -101.55860137939453], [0.04156282916665077, 0.202423557639122, 3.2921619415283203, -118.8464584350586], [0.0, 0.0, 0.0, 1.0]], "dcmmeta_reorient_transform": [[0.0, -1.0, 0.0, 63.0], [1.0, 0.0, 0.0, 0.0], [0.0, 0.0, 1.0, 0.0], [0.0, 0.0, 0.0, 1.0]], "dcmmeta_shape": [64, 64, 36, 510], "dcmmeta_slice_dim": 2, "dcmmeta_version": 0.6, "global": {"const": {"AcquisitionMatrix": [64, 0, 0, 64], "AngioFlag": "N", "BitsAllocated": 16, "BitsStored": 12, "BodyPartExamined": "BRAIN", "Columns": 384, "EchoNumbers": 1, "EchoTime": 32.0, "EchoTrainLength": 64, "FlipAngle": 40.0, "HighBit": 11, "ImageOrientationPatient": [0.99503047987584, -0.0986022471881, 0.01385427614501, 0.09931727557894, 0.99276546475665, -0.0674745193247], "ImagePositionPatient": [-632.97850699966, -515.27241657206, -80.356057677522], "ImageType": ["ORIGINAL", "PRIMARY", "M", "ND", "NORM", "MOSAIC"], "ImagedNucleus": "1H", "ImagingFrequency": 123.256234, "InPlanePhaseEncodingDirection": "COL", "MRAcquisitionType": "2D", "MagneticFieldStrength": 3.0, "Manufacturer": "SIEMENS", "ManufacturerModelName": "Prisma", "Modality": "MR", "NumberOfAverages": 1.0, "NumberOfPhaseEncodingSteps": 64, "PercentPhaseFieldOfView": 100.0, "PercentSampling": 100.0, "PerformedProcedureStepStartTime": "114635.192000", "PhotometricInterpretation": "MONOCHROME2", "PixelBandwidth": 2300.0, "PixelRepresentation": 0, "PixelSpacing": [3.0, 3.0], "ProtocolName": "cmrr_mbep2d_Pictures_AP_RDS", "RepetitionTime": 610.0, "Rows": 384, "SAR": 0.19292803279558, "SamplesPerPixel": 1, "ScanOptions": "FS", "ScanningSequence": "EP", "SequenceName": "*epfid2d1_64", "SequenceVariant": "SK", "SeriesDescription": "cmrr_mbep2d_Pictures_AP_RDS", "SeriesNumber": 6, "SeriesTime": "120247.074000", "SliceLocation": -110.9744527139, "SliceThickness": 3.0, "SmallestImagePixelValue": 0, "SoftwareVersions": "syngo MR E11", "SpacingBetweenSlices": 3.3000000629358, "SpecificCharacterSet": "ISO_IR 100", "StudyID": "1", "StudyTime": "114635.121000", "TransmitCoilName": "Body", "VariableFlipAngleFlag": "N", "WindowCenterWidthExplanation": "Algo1"}, "slices": {}}, "time": {"samples": {"AcquisitionNumber": [1, 2, 3, 4, 5, 6, 7, 8, 9, 10, 11, 12, 13, 14, 15, 16, 17, 18, 19, 20, 21, 22, 23, 24, 25, 26, 27, 28, 29, 30, 31, 32, 33, 34, 35, 36, 37, 38, 39, 40, 41, 42, 43, 44, 45, 46, 47, 48, 49, 50, 51, 52, 53, 54, 55, 56, 57, 58, 59, 60, 61, 62, 63, 64, 65, 66, 67, 68, 69, 70, 71, 72, 73, 74, 75, 76, 77, 78, 79, 80, 81, 82, 83, 84, 85, 86, 87, 88, 89, 90, 91, 92, 93, 94, 95, 96, 97, 98, 99, 100, 101, 102, 103, 104, 105, 106, 107, 108, 109, 110, 111, 112, 113, 114, 115, 116, 117, 118, 119, 120, 121, 122, 123, 124, 125, 126, 127, 128, 129, 130, 131, 132, 133, 134, 135, 136, 137, 138, 139, 140, 141, 142, 143, 144, 145, 146, 147, 148, 149, 150, 151, 152, 153, 154, 155, 156, 157, 158, 159, 160, 161, 162, 163, 164, 165, 166, 167, 168, 169, 170, 171, 172, 173, 174, 175, 176, 177, 178, 179, 180, 181, 182, 183, 184, 185, 186, 187, 188, 189, 190, 191, 192, 193, 194, 195, 196, 197, 198, 199, 200, 201, 202, 203, 204, 205, 206, 207, 208, 209, 210, 211, 212, 213, 214, 215, 216, 217, 218, 219, 220, 221, 222, 223, 224, 225, 226, 227, 228, 229, 230, 231, 232, 233, 234, 235, 236, 237, 238, 239, 240, 241, 242, 243, 244, 245, 246, 247, 248, 249, 250, 251, 252, 253, 254, 255, 256, 257, 258, 259, 260, 261, 262, 263, 264, 265, 266, 267, 268, 269, 270, 271, 272, 273, 274, 275, 276, 277, 278, 279, 280, 281, 282, 283, 284, 285, 286, 287, 288, 289, 290, 291, 292, 293, 294, 295, 296, 297, 298, 299, 300, 301, 302, 303, 304, 305, 306, 307, 308, 309, 310, 311, 312, 313, 314, 315, 316, 317, 318, 319, 320, 321, 322, 323, 324, 325, 326, 327, 328, 329, 330, 331, 332, 333, 334, 335, 336, 337, 338, 339, 340, 341, 342, 343, 344, 345, 346, 347, 348, 349, 350, 351, 352, 353, 354, 355, 356, 357, 358, 359, 360, 361, 362, 363, 364, 365, 366, 367, 368, 369, 370, 371, 372, 373, 374, 375, 376, 377, 378, 379, 380, 381, 382, 383, 384, 385, 386, 387, 388, 389, 390, 391, 392, 393, 394, 395, 396, 397, 398, 399, 400, 401, 402, 403, 404, 405, 406, 407, 408, 409, 410, 411, 412, 413, 414, 415, 416, 417, 418, 419, 420, 421, 422, 423, 424, 425, 426, 427, 428, 429, 430, 431, 432, 433, 434, 435, 436, 437, 438, 439, 440, 441, 442, 443, 444, 445, 446, 447, 448, 449, 450, 451, 452, 453, 454, 455, 456, 457, 458, 459, 460, 461, 462, 463, 464, 465, 466, 467, 468, 469, 470, 471, 472, 473, 474, 475, 476, 477, 478, 479, 480, 481, 482, 483, 484, 485, 486, 487, 488, 489, 490, 491, 492, 493, 494, 495, 496, 497, 498, 499, 500, 501, 502, 503, 504, 505, 506, 507, 508, 509, 510], "AcquisitionTime": ["120218.707500", "120219.317500", "120219.927500", "120220.537500", "120221.147500", "120221.757500", "120222.367500", "120222.977500", "120223.587500", "120224.197500", "120224.807500", "120225.417500", "120226.027500", "120226.637500", "120227.247500", "120227.857500", "120228.467500", "120229.077500", "120229.687500", "120230.297500", "120230.907500", "120231.517500", "120232.127500", "120232.737500", "120233.347500", "120233.957500", "120234.567500", "120235.177500", "120235.787500", "120236.397500", "120237.007500", "120237.617500", "120238.227500", "120238.837500", "120239.447500", "120240.057500", "120240.667500", "120241.277500", "120241.887500", "120242.497500", "120243.107500", "120243.717500", "120244.327500", "120244.937500", "120245.547500", "120246.157500", "120246.767500", "120247.377500", "120247.987500", "120248.597500", "120249.207500", "120249.817500", "120250.427500", "120251.037500", "120251.647500", "120252.257500", "120252.867500", "120253.477500", "120254.087500", "120254.697500", "120255.307500", "120255.917500", "120256.527500", "120257.137500", "120257.747500", "120258.357500", "120258.967500", "120259.577500", "120300.187500", "120300.797500", "120301.407500", "120302.017500", "120302.627500", "120303.237500", "120303.847500", "120304.457500", "120305.067500", "120305.677500", "120306.287500", "120306.897500", "120307.507500", "120308.117500", "120308.727500", "120309.337500", "120309.947500", "120310.557500", "120311.167500", "120311.777500", "120312.387500", "120312.997500", "120313.607500", "120314.217500", "120314.827500", "120315.437500", "120316.047500", "120316.657500", "120317.267500", "120317.877500", "120318.487500", "120319.097500", "120319.707500", "120320.317500", "120320.927500", "120321.537500", "120322.147500", "120322.757500", "120323.367500", "120323.977500", "120324.587500", "120325.197500", "120325.807500", "120326.417500", "120327.027500", "120327.637500", "120328.247500", "120328.857500", "120329.467500", "120330.077500", "120330.687500", "120331.297500", "120331.907500", "120332.517500", "120333.127500", "120333.737500", "120334.347500", "120334.957500", "120335.567500", "120336.177500", "120336.787500", "120337.397500", "120338.007500", "120338.617500", "120339.227500", "120339.837500", "120340.447500", "120341.057500", "120341.667500", "120342.277500", "120342.887500", "120343.497500", "120344.107500", "120344.717500", "120345.327500", "120345.937500", "120346.547500", "120347.157500", "120347.767500", "120348.377500", "120348.987500", "120349.597500", "120350.207500", "120350.817500", "120351.427500", "120352.037500", "120352.647500", "120353.257500", "120353.867500", "120354.477500", "120355.087500", "120355.697500", "120356.307500", "120356.917500", "120357.527500", "120358.137500", "120358.747500", "120359.357500", "120359.967500", "120400.577500", "120401.187500", "120401.797500", "120402.407500", "120403.017500", "120403.627500", "120404.237500", "120404.847500", "120405.457500", "120406.067500", "120406.677500", "120407.287500", "120407.897500", "120408.507500", "120409.117500", "120409.727500", "120410.337500", "120410.947500", "120411.557500", "120412.167500", "120412.777500", "120413.387500", "120413.997500", "120414.607500", "120415.217500", "120415.827500", "120416.437500", "120417.047500", "120417.657500", "120418.267500", "120418.877500", "120419.487500", "120420.097500", "120420.707500", "120421.317500", "120421.927500", "120422.537500", "120423.147500", "120423.757500", "120424.367500", "120424.977500", "120425.587500", "120426.197500", "120426.807500", "120427.417500", "120428.027500", "120428.637500", "120429.247500", "120429.857500", "120430.467500", "120431.077500", "120431.687500", "120432.297500", "120432.907500", "120433.517500", "120434.127500", "120434.737500", "120435.347500", "120435.957500", "120436.567500", "120437.177500", "120437.787500", "120438.397500", "120439.007500", "120439.617500", "120440.227500", "120440.837500", "120441.447500", "120442.057500", "120442.667500", "120443.277500", "120443.887500", "120444.497500", "120445.107500", "120445.717500", "120446.327500", "120446.937500", "120447.547500", "120448.157500", "120448.767500", "120449.377500", "120449.987500", "120450.597500", "120451.207500", "120451.817500", "120452.427500", "120453.037500", "120453.647500", "120454.257500", "120454.867500", "120455.477500", "120456.087500", "120456.697500", "120457.307500", "120457.917500", "120458.527500", "120459.137500", "120459.747500", "120500.357500", "120500.967500", "120501.577500", "120502.187500", "120502.797500", "120503.407500", "120504.017500", "120504.627500", "120505.237500", "120505.847500", "120506.457500", "120507.067500", "120507.677500", "120508.287500", "120508.897500", "120509.507500", "120510.117500", "120510.727500", "120511.337500", "120511.947500", "120512.557500", "120513.167500", "120513.777500", "120514.387500", "120514.997500", "120515.607500", "120516.217500", "120516.827500", "120517.437500", "120518.047500", "120518.657500", "120519.267500", "120519.877500", "120520.487500", "120521.097500", "120521.707500", "120522.317500", "120522.927500", "120523.537500", "120524.147500", "120524.757500", "120525.367500", "120525.977500", "120526.587500", "120527.197500", "120527.807500", "120528.417500", "120529.027500", "120529.637500", "120530.247500", "120530.857500", "120531.467500", "120532.077500", "120532.687500", "120533.297500", "120533.907500", "120534.517500", "120535.127500", "120535.737500", "120536.347500", "120536.957500", "120537.567500", "120538.177500", "120538.787500", "120539.397500", "120540.007500", "120540.617500", "120541.227500", "120541.837500", "120542.447500", "120543.057500", "120543.667500", "120544.277500", "120544.887500", "120545.497500", "120546.107500", "120546.717500", "120547.327500", "120547.937500", "120548.547500", "120549.157500", "120549.767500", "120550.377500", "120550.987500", "120551.597500", "120552.207500", "120552.817500", "120553.427500", "120554.037500", "120554.647500", "120555.257500", "120555.867500", "120556.477500", "120557.087500", "120557.697500", "120558.307500", "120558.917500", "120559.527500", "120600.137500", "120600.747500", "120601.357500", "120601.967500", "120602.577500", "120603.187500", "120603.797500", "120604.407500", "120605.017500", "120605.627500", "120606.237500", "120606.847500", "120607.457500", "120608.067500", "120608.677500", "120609.287500", "120609.897500", "120610.507500", "120611.117500", "120611.727500", "120612.337500", "120612.947500", "120613.557500", "120614.167500", "120614.777500", "120615.387500", "120615.997500", "120616.607500", "120617.217500", "120617.827500", "120618.437500", "120619.047500", "120619.657500", "120620.267500", "120620.877500", "120621.487500", "120622.097500", "120622.707500", "120623.317500", "120623.927500", "120624.537500", "120625.147500", "120625.757500", "120626.367500", "120626.977500", "120627.587500", "120628.197500", "120628.807500", "120629.417500", "120630.027500", "120630.637500", "120631.247500", "120631.857500", "120632.467500", "120633.077500", "120633.687500", "120634.297500", "120634.907500", "120635.517500", "120636.127500", "120636.737500", "120637.347500", "120637.957500", "120638.567500", "120639.177500", "120639.787500", "120640.397500", "120641.007500", "120641.617500", "120642.227500", "120642.837500", "120643.447500", "120644.057500", "120644.667500", "120645.277500", "120645.887500", "120646.497500", "120647.107500", "120647.717500", "120648.327500", "120648.937500", "120649.547500", "120650.157500", "120650.767500", "120651.377500", "120651.987500", "120652.597500", "120653.207500", "120653.817500", "120654.427500", "120655.037500", "120655.647500", "120656.257500", "120656.867500", "120657.477500", "120658.087500", "120658.697500", "120659.307500", "120659.917500", "120700.527500", "120701.137500", "120701.747500", "120702.357500", "120702.967500", "120703.577500", "120704.187500", "120704.797500", "120705.407500", "120706.017500", "120706.627500", "120707.237500", "120707.847500", "120708.457500", "120709.067500", "120709.677500", "120710.287500", "120710.897500", "120711.507500", "120712.117500", "120712.727500", "120713.337500", "120713.947500", "120714.557500", "120715.167500", "120715.777500", "120716.387500", "120716.997500", "120717.607500", "120718.217500", "120718.827500", "120719.437500", "120720.047500", "120720.657500", "120721.267500", "120721.877500", "120722.487500", "120723.097500", "120723.707500", "120724.317500", "120724.927500", "120725.537500", "120726.147500", "120726.757500", "120727.367500", "120727.977500", "120728.587500", "120729.197500"], "ContentTime": ["120247.077000", "120247.080000", "120247.083000", "120247.085000", "120247.088000", "120247.095000", "120247.098000", "120247.101000", "120247.104000", "120247.106000", "120247.109000", "120247.111000", "120247.114000", "120247.117000", "120247.120000", "120247.122000", "120247.124000", "120247.127000", "120247.129000", "120247.132000", "120247.134000", "120247.137000", "120247.139000", "120247.141000", "120247.144000", "120247.146000", "120247.148000", "120247.151000", "120247.153000", "120247.156000", "120247.158000", "120247.160000", "120247.163000", "120247.165000", "120247.167000", "120247.170000", "120247.172000", "120247.175000", "120247.178000", "120247.180000", "120247.183000", "120247.185000", "120247.188000", "120247.190000", "120247.193000", "120307.091000", "120307.094000", "120307.097000", "120307.099000", "120307.102000", "120307.104000", "120307.106000", "120307.109000", "120307.111000", "120307.113000", "120307.116000", "120307.118000", "120307.120000", "120307.123000", "120307.125000", "120307.128000", "120307.130000", "120307.132000", "120307.135000", "120307.137000", "120307.140000", "120307.142000", "120307.144000", "120307.147000", "120307.149000", "120307.151000", "120307.154000", "120307.156000", "120307.159000", "120307.161000", "120307.164000", "120307.166000", "120307.169000", "120327.079000", "120327.081000", "120327.084000", "120327.086000", "120327.089000", "120327.091000", "120327.093000", "120327.096000", "120327.098000", "120327.100000", "120327.103000", "120327.105000", "120327.107000", "120327.110000", "120327.112000", "120327.115000", "120327.117000", "120327.119000", "120327.122000", "120327.124000", "120327.126000", "120327.129000", "120327.131000", "120327.134000", "120327.136000", "120327.138000", "120327.141000", "120327.143000", "120327.146000", "120327.148000", "120327.150000", "120327.153000", "120327.155000", "120347.072000", "120347.075000", "120347.077000", "120347.080000", "120347.082000", "120347.085000", "120347.088000", "120347.090000", "120347.093000", "120347.095000", "120347.098000", "120347.109000", "120347.111000", "120347.114000", "120347.116000", "120347.119000", "120347.121000", "120347.123000", "120347.126000", "120347.128000", "120347.131000", "120347.133000", "120347.135000", "120347.138000", "120347.140000", "120347.142000", "120347.145000", "120347.147000", "120347.150000", "120347.152000", "120347.154000", "120347.157000", "120347.159000", "120407.072000", "120407.075000", "120407.077000", "120407.079000", "120407.082000", "120407.084000", "120407.087000", "120407.089000", "120407.092000", "120407.094000", "120407.097000", "120407.099000", "120407.101000", "120407.111000", "120407.113000", "120407.116000", "120407.118000", "120407.121000", "120407.123000", "120407.125000", "120407.128000", "120407.130000", "120407.133000", "120407.135000", "120407.138000", "120407.140000", "120407.142000", "120407.145000", "120407.147000", "120407.150000", "120407.152000", "120407.154000", "120407.157000", "120427.072000", "120427.075000", "120427.077000", "120427.080000", "120427.082000", "120427.085000", "120427.087000", "120427.089000", "120427.092000", "120427.094000", "120427.096000", "120427.099000", "120427.101000", "120427.104000", "120427.106000", "120427.109000", "120427.111000", "120427.113000", "120427.116000", "120427.118000", "120427.120000", "120427.123000", "120427.125000", "120427.128000", "120427.130000", "120427.132000", "120427.135000", "120427.137000", "120427.139000", "120427.142000", "120427.144000", "120427.147000", "120447.072000", "120447.075000", "120447.077000", "120447.080000", "120447.082000", "120447.085000", "120447.087000", "120447.090000", "120447.092000", "120447.095000", "120447.097000", "120447.099000", "120447.102000", "120447.104000", "120447.106000", "120447.109000", "120447.111000", "120447.118000", "120447.120000", "120447.123000", "120447.125000", "120447.128000", "120447.131000", "120447.134000", "120447.136000", "120447.139000", "120447.141000", "120447.143000", "120447.146000", "120447.148000", "120447.151000", "120447.153000", "120447.155000", "120507.072000", "120507.075000", "120507.077000", "120507.080000", "120507.082000", "120507.091000", "120507.093000", "120507.096000", "120507.098000", "120507.101000", "120507.103000", "120507.105000", "120507.108000", "120507.110000", "120507.113000", "120507.115000", "120507.117000", "120507.120000", "120507.122000", "120507.125000", "120507.127000", "120507.129000", "120507.132000", "120507.134000", "120507.137000", "120507.139000", "120507.141000", "120507.144000", "120507.146000", "120507.149000", "120507.151000", "120507.153000", "120507.156000", "120527.072000", "120527.075000", "120527.077000", "120527.080000", "120527.082000", "120527.085000", "120527.087000", "120527.089000", "120527.092000", "120527.094000", "120527.096000", "120527.099000", "120527.101000", "120527.104000", "120527.106000", "120527.109000", "120527.111000", "120527.113000", "120527.116000", "120527.118000", "120527.121000", "120527.123000", "120527.125000", "120527.128000", "120527.130000", "120527.132000", "120527.135000", "120527.137000", "120527.140000", "120527.142000", "120527.144000", "120527.147000", "120527.149000", "120547.072000", "120547.075000", "120547.077000", "120547.080000", "120547.082000", "120547.084000", "120547.087000", "120547.089000", "120547.092000", "120547.094000", "120547.096000", "120547.099000", "120547.101000", "120547.104000", "120547.106000", "120547.108000", "120547.111000", "120547.114000", "120547.116000", "120547.118000", "120547.121000", "120547.123000", "120547.125000", "120547.128000", "120547.130000", "120547.133000", "120547.135000", "120547.137000", "120547.140000", "120547.142000", "120547.145000", "120547.147000", "120547.149000", "120607.072000", "120607.075000", "120607.077000", "120607.080000", "120607.082000", "120607.085000", "120607.087000", "120607.090000", "120607.093000", "120607.095000", "120607.097000", "120607.100000", "120607.102000", "120607.105000", "120607.107000", "120607.110000", "120607.112000", "120607.114000", "120607.117000", "120607.119000", "120607.122000", "120607.124000", "120607.126000", "120607.129000", "120607.131000", "120607.134000", "120607.136000", "120607.138000", "120607.141000", "120607.143000", "120607.146000", "120607.148000", "120627.072000", "120627.075000", "120627.077000", "120627.080000", "120627.082000", "120627.085000", "120627.087000", "120627.089000", "120627.092000", "120627.094000", "120627.097000", "120627.099000", "120627.101000", "120627.104000", "120627.106000", "120627.109000", "120627.111000", "120627.114000", "120627.116000", "120627.118000", "120627.121000", "120627.123000", "120627.125000", "120627.128000", "120627.130000", "120627.133000", "120627.135000", "120627.137000", "120627.140000", "120627.142000", "120627.145000", "120627.147000", "120627.149000", "120647.072000", "120647.075000", "120647.078000", "120647.081000", "120647.083000", "120647.085000", "120647.088000", "120647.090000", "120647.093000", "120647.095000", "120647.098000", "120647.100000", "120647.103000", "120647.105000", "120647.107000", "120647.110000", "120647.112000", "120647.114000", "120647.117000", "120647.119000", "120647.122000", "120647.124000", "120647.126000", "120647.129000", "120647.131000", "120647.134000", "120647.167000", "120647.169000", "120647.172000", "120647.174000", "120647.177000", "120647.179000", "120647.181000", "120707.072000", "120707.075000", "120707.077000", "120707.080000", "120707.082000", "120707.085000", "120707.087000", "120707.089000", "120707.092000", "120707.094000", "120707.097000", "120707.099000", "120707.101000", "120707.104000", "120707.106000", "120707.109000", "120707.111000", "120707.113000", "120707.116000", "120707.118000", "120707.120000", "120707.123000", "120707.125000", "120707.128000", "120707.130000", "120707.132000", "120707.135000", "120707.137000", "120707.140000", "120707.142000", "120707.144000", "120707.147000", "120707.149000", "120727.072000", "120727.075000", "120727.077000", "120727.080000", "120727.082000", "120727.085000", "120727.087000", "120727.090000", "120727.092000", "120727.095000", "120727.097000", "120727.099000", "120727.102000", "120727.104000", "120727.107000", "120727.109000", "120727.111000", "120727.114000", "120727.116000", "120727.119000", "120727.121000", "120727.123000", "120727.126000", "120727.128000", "120727.131000", "120727.133000", "120727.135000", "120727.138000", "120727.140000", "120727.143000", "120727.145000", "120727.147000", "120727.150000", "120730.131000", "120730.134000", "120730.137000", "120730.139000", "120730.142000"], "InstanceCreationTime": ["120247.077000", "120247.080000", "120247.083000", "120247.085000", "120247.088000", "120247.095000", "120247.098000", "120247.101000", "120247.104000", "120247.106000", "120247.109000", "120247.111000", "120247.114000", "120247.117000", "120247.120000", "120247.122000", "120247.124000", "120247.127000", "120247.129000", "120247.132000", "120247.134000", "120247.137000", "120247.139000", "120247.141000", "120247.144000", "120247.146000", "120247.148000", "120247.151000", "120247.153000", "120247.156000", "120247.158000", "120247.160000", "120247.163000", "120247.165000", "120247.167000", "120247.170000", "120247.172000", "120247.175000", "120247.178000", "120247.180000", "120247.183000", "120247.185000", "120247.188000", "120247.190000", "120247.193000", "120307.091000", "120307.094000", "120307.097000", "120307.099000", "120307.102000", "120307.104000", "120307.106000", "120307.109000", "120307.111000", "120307.113000", "120307.116000", "120307.118000", "120307.120000", "120307.123000", "120307.125000", "120307.128000", "120307.130000", "120307.132000", "120307.135000", "120307.137000", "120307.140000", "120307.142000", "120307.144000", "120307.147000", "120307.149000", "120307.151000", "120307.154000", "120307.156000", "120307.159000", "120307.161000", "120307.164000", "120307.166000", "120307.169000", "120327.079000", "120327.081000", "120327.084000", "120327.086000", "120327.089000", "120327.091000", "120327.093000", "120327.096000", "120327.098000", "120327.100000", "120327.103000", "120327.105000", "120327.107000", "120327.110000", "120327.112000", "120327.115000", "120327.117000", "120327.119000", "120327.122000", "120327.124000", "120327.126000", "120327.129000", "120327.131000", "120327.134000", "120327.136000", "120327.138000", "120327.141000", "120327.143000", "120327.146000", "120327.148000", "120327.150000", "120327.153000", "120327.155000", "120347.072000", "120347.075000", "120347.077000", "120347.080000", "120347.082000", "120347.085000", "120347.088000", "120347.090000", "120347.093000", "120347.095000", "120347.098000", "120347.109000", "120347.111000", "120347.114000", "120347.116000", "120347.119000", "120347.121000", "120347.123000", "120347.126000", "120347.128000", "120347.131000", "120347.133000", "120347.135000", "120347.138000", "120347.140000", "120347.142000", "120347.145000", "120347.147000", "120347.150000", "120347.152000", "120347.154000", "120347.157000", "120347.159000", "120407.072000", "120407.075000", "120407.077000", "120407.079000", "120407.082000", "120407.084000", "120407.087000", "120407.089000", "120407.092000", "120407.094000", "120407.097000", "120407.099000", "120407.101000", "120407.111000", "120407.113000", "120407.116000", "120407.118000", "120407.121000", "120407.123000", "120407.125000", "120407.128000", "120407.130000", "120407.133000", "120407.135000", "120407.138000", "120407.140000", "120407.142000", "120407.145000", "120407.147000", "120407.150000", "120407.152000", "120407.154000", "120407.157000", "120427.072000", "120427.075000", "120427.077000", "120427.080000", "120427.082000", "120427.085000", "120427.087000", "120427.089000", "120427.092000", "120427.094000", "120427.096000", "120427.099000", "120427.101000", "120427.104000", "120427.106000", "120427.109000", "120427.111000", "120427.113000", "120427.116000", "120427.118000", "120427.120000", "120427.123000", "120427.125000", "120427.128000", "120427.130000", "120427.132000", "120427.135000", "120427.137000", "120427.139000", "120427.142000", "120427.144000", "120427.147000", "120447.072000", "120447.075000", "120447.077000", "120447.080000", "120447.082000", "120447.085000", "120447.087000", "120447.090000", "120447.092000", "120447.095000", "120447.097000", "120447.099000", "120447.102000", "120447.104000", "120447.106000", "120447.109000", "120447.111000", "120447.118000", "120447.120000", "120447.123000", "120447.125000", "120447.128000", "120447.131000", "120447.134000", "120447.136000", "120447.139000", "120447.141000", "120447.143000", "120447.146000", "120447.148000", "120447.151000", "120447.153000", "120447.155000", "120507.072000", "120507.075000", "120507.077000", "120507.080000", "120507.082000", "120507.091000", "120507.093000", "120507.096000", "120507.098000", "120507.101000", "120507.103000", "120507.105000", "120507.108000", "120507.110000", "120507.113000", "120507.115000", "120507.117000", "120507.120000", "120507.122000", "120507.125000", "120507.127000", "120507.129000", "120507.132000", "120507.134000", "120507.137000", "120507.139000", "120507.141000", "120507.144000", "120507.146000", "120507.149000", "120507.151000", "120507.153000", "120507.156000", "120527.072000", "120527.075000", "120527.077000", "120527.080000", "120527.082000", "120527.085000", "120527.087000", "120527.089000", "120527.092000", "120527.094000", "120527.096000", "120527.099000", "120527.101000", "120527.104000", "120527.106000", "120527.109000", "120527.111000", "120527.113000", "120527.116000", "120527.118000", "120527.121000", "120527.123000", "120527.125000", "120527.128000", "120527.130000", "120527.132000", "120527.135000", "120527.137000", "120527.140000", "120527.142000", "120527.144000", "120527.147000", "120527.149000", "120547.072000", "120547.075000", "120547.077000", "120547.080000", "120547.082000", "120547.084000", "120547.087000", "120547.089000", "120547.092000", "120547.094000", "120547.096000", "120547.099000", "120547.101000", "120547.104000", "120547.106000", "120547.108000", "120547.111000", "120547.114000", "120547.116000", "120547.118000", "120547.121000", "120547.123000"