{"AcquisitionMatrixPE": 64, "AcquisitionNumber": 1, "AcquisitionTime": "12:38:53.685000", "BandwidthPerPixelPhaseEncode": 28.935, "BaseResolution": 64, "BodyPartExamined": "BRAIN", "CoilString": "HC2_4_6_7;SC", "ConsistencyInfo": "N4_VE11E_LATEST_20181129", "ConversionSoftware": "dcm2niix", "ConversionSoftwareVersion": "v1.0.20190902", "DerivedVendorReportedEchoSpacing": 0.000540003, "DeviceSerialNumber": "166182", "DwellTime": 3.4e-06, "EchoTime": 0.032, "EchoTrainLength": 64, "EffectiveEchoSpacing": 0.000540003, "FlipAngle": 40, "ImageOrientationPatientDICOM": [0.999657, -0.0260237, 0.00290556, 0.0261769, 0.99598, -0.0856631], "ImageType": ["ORIGINAL", "PRIMARY", "M", "ND", "NORM", "MOSAIC"], "ImagingFrequency": 123.255, "InPlanePhaseEncodingDirectionDICOM": "COL", "InstitutionAddress": "PEARSE_STREET_._City_District_IE_D2", "InstitutionName": "TCIN", "InstitutionalDepartmentName": "MRI", "MRAcquisitionType": "2D", "MagneticFieldStrength": 3, "Manufacturer": "Siemens", "ManufacturersModelName": "Prisma", "Modality": "MR", "MultibandAccelerationFactor": 4, "PartialFourier": 1, "PatientPosition": "HFS", "PercentPhaseFOV": 100, "PhaseEncodingDirection": "j-", "PhaseEncodingSteps": 64, "PhaseResolution": 1, "PixelBandwidth": 2300, "ProcedureStepDescription": "Rhodri_Head_BOLD", "ProtocolName": "cmrr_mbep2d_Pictures_AP_RDS", "PulseSequenceDetails": "%SiemensSeq%_ep2d_bold", "ReceiveCoilActiveElements": "HC2,4,6,7;SC", "ReceiveCoilName": "SpecialPurpose_4", "ReconMatrixPE": 64, "RefLinesPE": 12, "RepetitionTime": 0.61, "SAR": 0.204376, "ScanOptions": "FS", "ScanningSequence": "EP", "SequenceName": "_epfid2d1_64", "SequenceVariant": "SK", "SeriesDescription": "cmrr_mbep2d_Pictures_AP_RDS", "SeriesNumber": 8, "ShimSetting": [-3605, -7457, 3969, 1079, -336, 502, -96, 62], "SliceThickness": 3, "SliceTiming": [0.26, 0, 0.3275, 0.065, 0.3925, 0.13, 0.4575, 0.195, 0.5225, 0.26, 0, 0.3275, 0.065, 0.3925, 0.13, 0.4575, 0.195, 0.5225, 0.26, 0, 0.3275, 0.065, 0.3925, 0.13, 0.4575, 0.195, 0.5225, 0.26, 0, 0.3275, 0.065, 0.3925, 0.13, 0.4575, 0.195, 0.5225], "SoftwareVersions": "syngo_MR_E11", "SpacingBetweenSlices": 3.3, "StationName": "AWP166182", "TaskName": "pictures", "TotalReadoutTime": 0.0340202, "TxRefAmp": 218.75, "dcmmeta_affine": [[-2.9989712238311768, 0.07853079587221146, 0.002193229738622904, 94.89077758789062], [0.0780709981918335, 2.987940549850464, -0.2828424274921417, -102.93553924560547], [0.00871669128537178, 0.25698941946029663, 3.287855863571167, -83.59260559082031], [0.0, 0.0, 0.0, 1.0]], "dcmmeta_reorient_transform": [[0.0, -1.0, 0.0, 63.0], [1.0, 0.0, 0.0, 0.0], [0.0, 0.0, 1.0, 0.0], [0.0, 0.0, 0.0, 1.0]], "dcmmeta_shape": [64, 64, 36, 375], "dcmmeta_slice_dim": 2, "dcmmeta_version": 0.6, "global": {"const": {"AcquisitionMatrix": [64, 0, 0, 64], "AngioFlag": "N", "BitsAllocated": 16, "BitsStored": 12, "BodyPartExamined": "BRAIN", "Columns": 384, "EchoNumbers": 1, "EchoTime": 32.0, "EchoTrainLength": 64, "FlipAngle": 40.0, "HighBit": 11, "ImageOrientationPatient": [0.99965710446473, -0.0260236660034, 0.00290556379016, 0.02617693221162, 0.99598021784443, -0.0856631419138], "ImagePositionPatient": [-592.2385523891, -550.88386527128, -27.678635122844], "ImageType": ["ORIGINAL", "PRIMARY", "M", "ND", "NORM", "MOSAIC"], "ImagedNucleus": "1H", "ImagingFrequency": 123.25491, "InPlanePhaseEncodingDirection": "COL", "MRAcquisitionType": "2D", "MagneticFieldStrength": 3.0, "Manufacturer": "SIEMENS", "ManufacturerModelName": "Prisma", "Modality": "MR", "NumberOfAverages": 1.0, "NumberOfPhaseEncodingSteps": 64, "PercentPhaseFieldOfView": 100.0, "PercentSampling": 100.0, "PerformedProcedureStepStartTime": "121828.880000", "PhotometricInterpretation": "MONOCHROME2", "PixelBandwidth": 2300.0, "PixelRepresentation": 0, "PixelSpacing": [3.0, 3.0], "ProtocolName": "cmrr_mbep2d_Pictures_AP_RDS", "RepetitionTime": 610.0, "Rows": 384, "SAR": 0.20437645576107, "SamplesPerPixel": 1, "ScanOptions": "FS", "ScanningSequence": "EP", "SequenceName": "*epfid2d1_64", "SequenceVariant": "SK", "SeriesDescription": "cmrr_mbep2d_Pictures_AP_RDS", "SeriesNumber": 8, "SeriesTime": "123923.274000", "SliceLocation": -74.399325752992, "SliceThickness": 3.0, "SmallestImagePixelValue": 0, "SoftwareVersions": "syngo MR E11", "SpacingBetweenSlices": 3.3000000117107, "SpecificCharacterSet": "ISO_IR 100", "StudyID": "2", "StudyTime": "121828.777000", "TransmitCoilName": "Body", "VariableFlipAngleFlag": "N", "WindowCenterWidthExplanation": "Algo1"}, "slices": {}}, "time": {"samples": {"AcquisitionNumber": [1, 2, 3, 4, 5, 6, 7, 8, 9, 10, 11, 12, 13, 14, 15, 16, 17, 18, 19, 20, 21, 22, 23, 24, 25, 26, 27, 28, 29, 30, 31, 32, 33, 34, 35, 36, 37, 38, 39, 40, 41, 42, 43, 44, 45, 46, 47, 48, 49, 50, 51, 52, 53, 54, 55, 56, 57, 58, 59, 60, 61, 62, 63, 64, 65, 66, 67, 68, 69, 70, 71, 72, 73, 74, 75, 76, 77, 78, 79, 80, 81, 82, 83, 84, 85, 86, 87, 88, 89, 90, 91, 92, 93, 94, 95, 96, 97, 98, 99, 100, 101, 102, 103, 104, 105, 106, 107, 108, 109, 110, 111, 112, 113, 114, 115, 116, 117, 118, 119, 120, 121, 122, 123, 124, 125, 126, 127, 128, 129, 130, 131, 132, 133, 134, 135, 136, 137, 138, 139, 140, 141, 142, 143, 144, 145, 146, 147, 148, 149, 150, 151, 152, 153, 154, 155, 156, 157, 158, 159, 160, 161, 162, 163, 164, 165, 166, 167, 168, 169, 170, 171, 172, 173, 174, 175, 176, 177, 178, 179, 180, 181, 182, 183, 184, 185, 186, 187, 188, 189, 190, 191, 192, 193, 194, 195, 196, 197, 198, 199, 200, 201, 202, 203, 204, 205, 206, 207, 208, 209, 210, 211, 212, 213, 214, 215, 216, 217, 218, 219, 220, 221, 222, 223, 224, 225, 226, 227, 228, 229, 230, 231, 232, 233, 234, 235, 236, 237, 238, 239, 240, 241, 242, 243, 244, 245, 246, 247, 248, 249, 250, 251, 252, 253, 254, 255, 256, 257, 258, 259, 260, 261, 262, 263, 264, 265, 266, 267, 268, 269, 270, 271, 272, 273, 274, 275, 276, 277, 278, 279, 280, 281, 282, 283, 284, 285, 286, 287, 288, 289, 290, 291, 292, 293, 294, 295, 296, 297, 298, 299, 300, 301, 302, 303, 304, 305, 306, 307, 308, 309, 310, 311, 312, 313, 314, 315, 316, 317, 318, 319, 320, 321, 322, 323, 324, 325, 326, 327, 328, 329, 330, 331, 332, 333, 334, 335, 336, 337, 338, 339, 340, 341, 342, 343, 344, 345, 346, 347, 348, 349, 350, 351, 352, 353, 354, 355, 356, 357, 358, 359, 360, 361, 362, 363, 364, 365, 366, 367, 368, 369, 370, 371, 372, 373, 374, 375], "AcquisitionTime": ["123853.685000", "123854.295000", "123854.905000", "123855.515000", "123856.125000", "123856.735000", "123857.345000", "123857.955000", "123858.565000", "123859.175000", "123859.785000", "123900.395000", "123901.005000", "123901.615000", "123902.225000", "123902.835000", "123903.445000", "123904.055000", "123904.665000", "123905.275000", "123905.885000", "123906.495000", "123907.105000", "123907.715000", "123908.325000", "123908.935000", "123909.545000", "123910.155000", "123910.765000", "123911.375000", "123911.985000", "123912.595000", "123913.205000", "123913.815000", "123914.425000", "123915.035000", "123915.645000", "123916.255000", "123916.865000", "123917.475000", "123918.085000", "123918.695000", "123919.305000", "123919.915000", "123920.525000", "123921.135000", "123921.745000", "123922.355000", "123922.965000", "123923.575000", "123924.185000", "123924.795000", "123925.405000", "123926.015000", "123926.625000", "123927.235000", "123927.845000", "123928.455000", "123929.065000", "123929.675000", "123930.285000", "123930.895000", "123931.505000", "123932.115000", "123932.725000", "123933.335000", "123933.945000", "123934.555000", "123935.165000", "123935.775000", "123936.385000", "123936.995000", "123937.605000", "123938.215000", "123938.825000", "123939.435000", "123940.045000", "123940.655000", "123941.265000", "123941.875000", "123942.485000", "123943.095000", "123943.705000", "123944.315000", "123944.925000", "123945.535000", "123946.145000", "123946.755000", "123947.365000", "123947.975000", "123948.585000", "123949.195000", "123949.805000", "123950.415000", "123951.025000", "123951.635000", "123952.245000", "123952.855000", "123953.465000", "123954.075000", "123954.685000", "123955.295000", "123955.905000", "123956.515000", "123957.125000", "123957.735000", "123958.345000", "123958.955000", "123959.565000", "124000.175000", "124000.785000", "124001.395000", "124002.005000", "124002.615000", "124003.225000", "124003.835000", "124004.445000", "124005.055000", "124005.665000", "124006.275000", "124006.885000", "124007.495000", "124008.105000", "124008.715000", "124009.325000", "124009.935000", "124010.545000", "124011.155000", "124011.765000", "124012.375000", "124012.985000", "124013.595000", "124014.205000", "124014.815000", "124015.425000", "124016.035000", "124016.645000", "124017.255000", "124017.865000", "124018.475000", "124019.085000", "124019.695000", "124020.305000", "124020.915000", "124021.525000", "124022.135000", "124022.745000", "124023.355000", "124023.965000", "124024.575000", "124025.185000", "124025.795000", "124026.405000", "124027.015000", "124027.625000", "124028.235000", "124028.845000", "124029.455000", "124030.065000", "124030.675000", "124031.285000", "124031.895000", "124032.505000", "124033.115000", "124033.725000", "124034.335000", "124034.945000", "124035.555000", "124036.165000", "124036.775000", "124037.385000", "124037.995000", "124038.605000", "124039.215000", "124039.825000", "124040.435000", "124041.045000", "124041.655000", "124042.265000", "124042.875000", "124043.485000", "124044.095000", "124044.705000", "124045.315000", "124045.925000", "124046.535000", "124047.145000", "124047.755000", "124048.365000", "124048.975000", "124049.585000", "124050.195000", "124050.805000", "124051.415000", "124052.025000", "124052.635000", "124053.245000", "124053.855000", "124054.465000", "124055.075000", "124055.685000", "124056.295000", "124056.905000", "124057.515000", "124058.125000", "124058.735000", "124059.345000", "124059.955000", "124100.565000", "124101.175000", "124101.785000", "124102.395000", "124103.005000", "124103.615000", "124104.225000", "124104.835000", "124105.445000", "124106.055000", "124106.665000", "124107.275000", "124107.885000", "124108.495000", "124109.105000", "124109.715000", "124110.325000", "124110.935000", "124111.545000", "124112.155000", "124112.765000", "124113.375000", "124113.985000", "124114.595000", "124115.205000", "124115.815000", "124116.425000", "124117.035000", "124117.645000", "124118.255000", "124118.865000", "124119.475000", "124120.085000", "124120.695000", "124121.305000", "124121.915000", "124122.525000", "124123.135000", "124123.745000", "124124.355000", "124124.965000", "124125.575000", "124126.185000", "124126.795000", "124127.405000", "124128.015000", "124128.625000", "124129.235000", "124129.845000", "124130.455000", "124131.065000", "124131.675000", "124132.285000", "124132.895000", "124133.505000", "124134.115000", "124134.725000", "124135.335000", "124135.945000", "124136.555000", "124137.165000", "124137.775000", "124138.385000", "124138.995000", "124139.605000", "124140.215000", "124140.825000", "124141.435000", "124142.045000", "124142.655000", "124143.265000", "124143.875000", "124144.485000", "124145.095000", "124145.705000", "124146.315000", "124146.925000", "124147.535000", "124148.145000", "124148.755000", "124149.365000", "124149.975000", "124150.585000", "124151.195000", "124151.805000", "124152.415000", "124153.025000", "124153.635000", "124154.245000", "124154.855000", "124155.465000", "124156.075000", "124156.685000", "124157.295000", "124157.905000", "124158.515000", "124159.125000", "124159.735000", "124200.345000", "124200.955000", "124201.565000", "124202.175000", "124202.785000", "124203.395000", "124204.005000", "124204.615000", "124205.225000", "124205.835000", "124206.445000", "124207.055000", "124207.665000", "124208.275000", "124208.885000", "124209.495000", "124210.105000", "124210.715000", "124211.325000", "124211.935000", "124212.545000", "124213.155000", "124213.765000", "124214.375000", "124214.985000", "124215.595000", "124216.205000", "124216.815000", "124217.425000", "124218.035000", "124218.645000", "124219.255000", "124219.865000", "124220.475000", "124221.085000", "124221.695000", "124222.305000", "124222.915000", "124223.525000", "124224.135000", "124224.745000", "124225.355000", "124225.965000", "124226.575000", "124227.185000", "124227.795000", "124228.405000", "124229.015000", "124229.625000", "124230.235000", "124230.845000", "124231.455000", "124232.065000", "124232.675000", "124233.285000", "124233.895000", "124234.505000", "124235.115000", "124235.725000", "124236.335000", "124236.945000", "124237.555000", "124238.165000", "124238.775000", "124239.385000", "124239.995000", "124240.605000", "124241.215000", "124241.825000"], "ContentTime": ["123923.278000", "123923.281000", "123923.283000", "123923.286000", "123923.288000", "123923.291000", "123923.293000", "123923.301000", "123923.304000", "123923.306000", "123923.309000", "123923.311000", "123923.313000", "123923.316000", "123923.318000", "123923.320000", "123923.323000", "123923.325000", "123923.327000", "123923.330000", "123923.332000", "123923.334000", "123923.337000", "123923.339000", "123923.341000", "123923.344000", "123923.346000", "123923.348000", "123923.351000", "123923.353000", "123923.355000", "123923.358000", "123923.360000", "123923.362000", "123923.365000", "123923.367000", "123923.370000", "123923.372000", "123923.374000", "123923.377000", "123923.379000", "123923.381000", "123923.384000", "123923.386000", "123923.388000", "123923.391000", "123923.393000", "123923.396000", "123943.273000", "123943.276000", "123943.278000", "123943.281000", "123943.283000", "123943.286000", "123943.288000", "123943.291000", "123943.293000", "123943.295000", "123943.298000", "123943.300000", "123943.303000", "123943.305000", "123943.307000", "123943.310000", "123943.312000", "123943.315000", "123943.317000", "123943.319000", "123943.322000", "123943.324000", "123943.326000", "123943.329000", "123943.331000", "123943.334000", "123943.336000", "123943.338000", "123943.340000", "123943.343000", "123943.345000", "123943.348000", "124003.273000", "124003.276000", "124003.287000", "124003.289000", "124003.296000", "124003.298000", "124003.301000", "124003.303000", "124003.305000", "124003.314000", "124003.316000", "124003.319000", "124003.321000", "124003.323000", "124003.326000", "124003.328000", "124003.331000", "124003.333000", "124003.336000", "124003.338000", "124003.341000", "124003.343000", "124003.345000", "124003.348000", "124003.350000", "124003.353000", "124003.355000", "124003.358000", "124003.361000", "124003.363000", "124003.365000", "124003.368000", "124003.370000", "124023.273000", "124023.276000", "124023.278000", "124023.280000", "124023.283000", "124023.285000", "124023.288000", "124023.290000", "124023.292000", "124023.305000", "124023.308000", "124023.310000", "124023.312000", "124023.315000", "124023.317000", "124023.319000", "124023.322000", "124023.324000", "124023.326000", "124023.329000", "124023.331000", "124023.334000", "124023.336000", "124023.338000", "124023.341000", "124023.343000", "124023.345000", "124023.348000", "124023.350000", "124023.353000", "124023.355000", "124023.357000", "124023.359000", "124043.274000", "124043.277000", "124043.279000", "124043.282000", "124043.284000", "124043.286000", "124043.289000", "124043.291000", "124043.293000", "124043.296000", "124043.298000", "124043.300000", "124043.303000", "124043.305000", "124043.307000", "124043.310000", "124043.312000", "124043.315000", "124043.317000", "124043.319000", "124043.321000", "124043.324000", "124043.326000", "124043.328000", "124043.331000", "124043.333000", "124043.335000", "124043.338000", "124043.340000", "124043.343000", "124043.345000", "124043.347000", "124043.350000", "124103.274000", "124103.277000", "124103.279000", "124103.281000", "124103.284000", "124103.286000", "124103.288000", "124103.291000", "124103.293000", "124103.295000", "124103.298000", "124103.300000", "124103.302000", "124103.305000", "124103.307000", "124103.310000", "124103.312000", "124103.315000", "124103.318000", "124103.320000", "124103.322000", "124103.325000", "124103.327000", "124103.329000", "124103.332000", "124103.334000", "124103.336000", "124103.345000", "124103.347000", "124103.349000", "124103.352000", "124103.354000", "124123.274000", "124123.277000", "124123.279000", "124123.282000", "124123.284000", "124123.287000", "124123.289000", "124123.292000", "124123.294000", "124123.296000", "124123.299000", "124123.301000", "124123.304000", "124123.306000", "124123.308000", "124123.311000", "124123.313000", "124123.316000", "124123.318000", "124123.321000", "124123.323000", "124123.326000", "124123.328000", "124123.330000", "124123.333000", "124123.335000", "124123.338000", "124123.340000", "124123.342000", "124123.345000", "124123.347000", "124123.350000", "124123.352000", "124143.273000", "124143.276000", "124143.278000", "124143.281000", "124143.283000", "124143.286000", "124143.288000", "124143.290000", "124143.293000", "124143.295000", "124143.298000", "124143.300000", "124143.302000", "124143.305000", "124143.307000", "124143.309000", "124143.312000", "124143.314000", "124143.316000", "124143.319000", "124143.321000", "124143.323000", "124143.326000", "124143.328000", "124143.330000", "124143.333000", "124143.335000", "124143.338000", "124143.340000", "124143.342000", "124143.345000", "124143.357000", "124143.359000", "124203.273000", "124203.276000", "124203.278000", "124203.281000", "124203.283000", "124203.285000", "124203.288000", "124203.290000", "124203.293000", "124203.295000", "124203.298000", "124203.300000", "124203.302000", "124203.305000", "124203.314000", "124203.317000", "124203.319000", "124203.322000", "124203.324000", "124203.326000", "124203.329000", "124203.331000", "124203.333000", "124203.336000", "124203.338000", "124203.340000", "124203.343000", "124203.345000", "124203.347000", "124203.350000", "124203.352000", "124203.355000", "124203.357000", "124223.273000", "124223.276000", "124223.278000", "124223.280000", "124223.283000", "124223.285000", "124223.287000", "124223.290000", "124223.292000", "124223.294000", "124223.303000", "124223.305000", "124223.308000", "124223.310000", "124223.312000", "124223.315000", "124223.317000", "124223.319000", "124223.322000", "124223.324000", "124223.326000", "124223.329000", "124223.331000", "124223.333000", "124223.336000", "124223.338000", "124223.341000", "124223.343000", "124223.345000", "124223.348000", "124223.350000", "124223.352000", "124223.355000", "124243.273000", "124243.276000", "124243.278000", "124243.281000", "124243.283000", "124243.286000", "124243.288000", "124243.290000", "124243.293000", "124243.296000", "124243.329000", "124243.331000", "124243.334000", "124243.336000", "124243.339000", "124243.341000", "124243.343000", "124243.346000", "124243.348000", "124243.351000", "124243.353000", "124243.356000", "124243.358000", "124243.360000", "124243.363000", "124243.365000", "124243.368000", "124243.370000", "124243.372000", "124243.375000", "124243.377000", "124243.380000"], "InstanceCreationTime": ["123923.278000", "123923.281000", "123923.283000", "123923.286000", "123923.288000", "123923.291000", "123923.293000", "123923.301000", "123923.304000", "123923.306000", "123923.309000", "123923.311000", "123923.313000", "123923.316000", "123923.318000", "123923.320000", "123923.323000", "123923.325000", "123923.327000", "123923.330000", "123923.332000", "123923.334000", "123923.337000", "123923.339000", "123923.341000", "123923.344000", "123923.346000", "123923.348000", "123923.351000", "123923.353000", "123923.355000", "123923.358000", "123923.360000", "123923.362000", "123923.365000", "123923.367000", "123923.370000", "123923.372000", "123923.374000", "123923.377000", "123923.379000", "123923.381000", "123923.384000", "123923.386000", "123923.388000", "123923.391000", "123923.393000", "123923.396000", "123943.273000", "123943.276000", "123943.278000", "123943.281000", "123943.283000", "123943.286000", "123943.288000", "123943.291000", "123943.293000", "123943.295000", "123943.298000", "123943.300000", "123943.303000", "123943.305000", "123943.307000", "123943.310000", "123943.312000", "123943.315000", "123943.317000", "123943.319000", "123943.322000", "123943.324000", "123943.326000", "123943.329000", "123943.331000", "123943.334000", "123943.336000", "123943.338000", "123943.340000", "123943.343000", "123943.345000", "123943.348000", "124003.273000", "124003.276000", "124003.287000", "124003.289000", "124003.296000", "124003.298000", "124003.301000", "124003.303000", "124003.305000", "124003.314000", "124003.316000", "124003.319000", "124003.321000", "124003.323000", "124003.326000", "124003.328000", "124003.331000", "124003.333000", "124003.336000", "124003.338000", "124003.341000", "124003.343000", "124003.345000", "124003.348000", "124003.350000", "124003.353000", "124003.355000", "124003.358000", "124003.361000", "124003.363000", "124003.365000", "124003.368000", "124003.370000", "124023.273000", "124023.276000", "124023.278000", "124023.280000", "124023.283000", "124023.285000", "124023.288000", "124023.290000", "124023.292000", "124023.305000", "124023.308000", "124023.310000", "124023.312000", "124023.315000", "124023.317000", "124023.319000", "124023.322000", "124023.324000", "124023.326000", "124023.329000", "124023.331000", "124023.334000", "124023.336000", "124023.338000", "124023.341000", "124023.343000", "124023.345000", "124023.348000", "124023.350000", "124023.353000", "124023.355000", "124023.357000", "124023.359000", "124043.274000", "124043.277000", "124043.279000", "124043.282000", "124043.284000", "124043.286000", "124043.289000", "124043.291000", "124043.293000", "124043.296000", "124043.298000", "124043.300000", "124043.303000", "124043.305000", "124043.307000", "124043.310000", "124043.312000", "124043.315000", "124043.317000", "124043.319000", "124043.321000", "124043.324000", "124043.326000", "124043.328000", "124043.331000", "124043.333000", "124043.335000", "124043.338000", "124043.340000", "124043.343000", "124043.345000", "124043.347000", "124043.350000", "124103.274000", "124103.277000", "124103.279000", "124103.281000", "124103.284000", "124103.286000", "124103.288000", "124103.291000", "124103.293000", "124103.295000", "124103.298000", "124103.300000", "124103.302000", "124103.305000", "124103.307000", "124103.310000", "124103.312000", "124103.315000", "124103.318000", "124103.320000", "124103.322000", "124103.325000", "124103.327000", "124103.329000", "124103.332000", "124103.334000", "124103.336000", "124103.345000", "124103.347000", "124103.349000", "124103.352000", "124103.354000", "124123.274000", "124123.277000", "124123.279000", "124123.282000", "124123.284000", "124123.287000", "124123.289000", "124123.292000", "124123.294000", "124123.296000", "124123.299000", "124123.301000", "124123.304000", "124123.306000", "124123.308000", "124123.311000", "124123.313000", "124123.316000", "124123.318000", "124123.321000", "124123.323000", "124123.326000", "124123.328000", "124123.330000", "124123.333000", "124123.335000", "124123.338000", "124123.340000", "124123.342000", "124123.345000", "124123.347000", "124123.350000", "124123.352000", "124143.273000", "124143.276000", "124143.278000", "124143.281000", "124143.283000", "124143.286000", "124143.288000", "124143.290000", "124143.293000", "124143.295000", "124143.298000", "124143.300000", "124143.302000", "124143.305000", "124143.307000", "124143.309000", "124143.312000", "124143.314000", "124143.316000", "124143.319000", "124143.321000", "124143.323000", "124143.326000", "124143.328000", "124143.330000", "124143.333000", "124143.335000", "124143.338000", "124143.340000", "124143.342000", "124143.345000", "124143.357000", "124143.359000", "124203.273000", "124203.276000", "124203.278000", "124203.281000", "124203.283000", "124203.285000", "124203.288000", "124203.290000", "124203.293000", "124203.295000", "124203.298000", "124203.300000", "124203.302000", "124203.305000", "124203.314000", "124203.317000", "124203.319000", "124203.322000", "124203.324000", "124203.326000", "124203.329000", "124203.331000", "124203.333000", "124203.336000", "124203.338000", "124203.340000", "124203.343000", "124203.345000", "124203.347000", "124203.350000", "124203.352000", "124203.355000", "124203.357000", "124223.273000", "124223.276000", "124223.278000", "124223.280000", "124223.283000", "124223.285000", "124223.287000", "124223.290000", "124223.292000", "124223.294000", "124223.303000", "124223.305000", "124223.308000", "124223.310000", "124223.312000", "124223.315000", "124223.317000", "124223.319000", "124223.322000", "124223.324000", "124223.326000", "124223.329000", "124223.331000", "124223.333000", "124223.336000", "124223.338000", "124223.341000", "124223.343000", "124223.345000", "124223.348000", "124223.350000", "124223.352000", "124223.355000", "124243.273000", "124243.276000", "124243.278000", "124243.281000", "124243.283000", "124243.286000", "124243.288000", "124243.290000", "124243.293000", "124243.296000", "124243.329000", "124243.331000", "124243.334000", "124243.336000", "124243.339000", "124243.341000", "124243.343000", "124243.346000", "124243.348000", "124243.351000", "124243.353000", "124243.356000", "124243.358000", "124243.360000", "124243.363000", "124243.365000", "124243.368000", "124243.370000", "124243.372000", "124243.375000", "124243.377000", "124243.380000"], "InstanceNumber": [1, 2, 3, 4, 5, 6, 7, 8, 9, 10, 11, 12, 13, 14, 15, 16, 17, 18, 19, 20, 21, 22, 23, 24, 25, 26, 27, 28, 29, 30, 31, 32, 33, 34, 35, 36, 37, 38, 39, 40, 41, 42, 43, 44, 45, 46, 47, 48, 49, 50, 51, 52, 53, 54, 55, 56, 57, 58, 59, 60, 61, 62, 63, 64, 65, 66, 67, 68, 69, 70, 71, 72, 73, 74, 75, 76, 77, 78, 79, 80, 81, 82, 83, 84, 85, 86, 87, 88, 89, 90, 91, 92, 93, 94, 95, 96, 97, 98, 99, 100, 101, 102, 103, 104, 105, 106, 107, 108, 109, 110, 111, 112, 113, 114, 115, 116, 117, 118, 119, 120, 121, 122, 123, 124, 125, 126, 127, 128, 129, 130, 131, 132, 133, 134, 135, 136, 137, 138, 139, 140, 141, 142, 143, 144, 145, 146, 147, 148, 149, 150, 151, 152, 153, 154, 155, 156, 157, 158, 159, 160, 161, 162, 163, 164, 165, 166, 167, 168, 169, 170, 171, 172, 173, 174, 175, 176, 177, 178, 179, 180, 181, 182, 183, 184, 185, 186, 187, 188, 189, 190, 191, 192, 193, 194, 195, 196, 197, 198, 199, 200, 201, 202, 203, 204, 205, 206, 207, 208, 209, 210, 211, 212, 213, 214, 215, 216, 217, 218, 219, 220, 221, 222, 223, 224, 225, 226, 227, 228, 229, 230, 231, 232, 233, 234, 235, 236, 237, 238, 239, 240, 241, 242, 243, 244, 245, 246, 247, 248, 249, 250, 251, 252, 253, 254, 255, 256, 257, 258, 259, 260, 261, 262, 263, 264, 265, 266, 267, 268, 269, 270, 271, 272, 273, 274, 275, 276, 277, 278, 279, 280, 281, 282, 283, 284, 285, 286, 287, 288, 289, 290, 291, 292, 293, 294, 295, 296, 297, 298, 299, 300, 301, 302, 303, 304, 305, 306, 307, 308, 309, 310, 311, 312, 313, 314, 315, 316, 317, 318, 319, 320, 321, 322, 323, 324, 325, 326, 327, 328, 329, 330, 331, 332, 333, 334, 335, 336, 337, 338, 339, 340, 341, 342, 343, 344, 345, 346, 347, 348, 349, 350, 351, 352, 353, 354, 355, 356, 357, 358, 359, 360, 361, 362, 363, 364, 365, 366, 367, 368, 369, 370, 371, 372, 373, 374, 375], "LargestImagePixelValue": [587, 573, 586, 612, 616, 669, 592, 630, 584, 584, 584, 584, 580, 587, 576, 575, 578, 578, 587, 575, 580, 581, 595, 585, 581, 587, 582, 626, 581, 589, 579, 589, 579, 596, 582, 585, 581, 587, 588, 588, 588, 587, 655, 588, 590, 586, 589, 590, 595, 592, 589, 591, 594, 591, 592, 591, 647, 584, 631, 593, 700, 598, 689, 634, 630, 732, 639, 628, 634, 613, 585, 591, 598, 596, 631, 598, 738, 809, 607, 779, 750, 666, 728, 692, 645, 587, 721, 626, 674, 594, 612, 574, 573, 617, 754, 586, 618, 595, 623, 599, 689, 586, 584, 594, 586, 584, 589, 643, 585, 640, 585, 593, 586, 590, 585, 589, 593, 589, 585, 592, 591, 589, 595, 594, 591, 590, 587, 591, 588, 641, 587, 589, 654, 588, 587, 640, 584, 583, 616, 585, 582, 625, 585, 581, 606, 585, 588, 592, 580, 633, 580, 582, 586, 581, 585, 885, 628, 621, 587, 582, 569, 569, 583, 580, 723, 815, 863, 584, 715, 623, 571, 568, 570, 799, 697, 793, 826, 695, 685, 723, 689, 699, 667, 699, 696, 715, 697, 602, 569, 563, 568, 604, 603, 561, 560, 633, 572, 565, 579, 569, 573, 581, 751, 712, 707, 662, 704, 719, 662, 640, 636, 600, 764, 654, 645, 620, 618, 780, 677, 720, 699, 711, 613, 572, 559, 568, 558, 570, 722, 652, 580, 573, 588, 578, 653, 598, 588, 692, 572, 574, 596, 648, 647, 556, 619, 688, 574, 591, 567, 564, 583, 584, 568, 573, 640, 742, 697, 579, 689, 611, 748, 641, 719, 608, 640, 663, 637, 636, 645, 716, 659, 645, 668, 663, 767, 705, 691, 643, 598, 709, 675, 694, 679, 645, 629, 608, 659, 617, 706, 679, 691, 702, 723, 733, 653, 746, 664, 684, 655, 646, 691, 659, 762, 669, 641, 726, 636, 661, 651, 604, 597, 692, 609, 643, 626, 628, 582, 643, 656, 600, 639, 736, 627, 609, 745, 650, 652, 619, 719, 597, 669, 622, 592, 749, 596, 626, 645, 597, 572, 713, 580, 604, 697, 577, 610, 648, 597, 585, 632, 599, 567, 622, 656, 581, 578, 686, 583, 577, 644, 567, 621, 617, 579, 596, 613, 623, 581, 608, 701, 595, 609, 623, 630, 584, 641], "WindowCenter": [339.0, 336.0, 334.0, 333.0, 333.0, 333.0, 333.0, 333.0, 332.0, 332.0, 333.0, 333.0, 334.0, 334.0, 334.0, 334.0, 332.0, 331.0, 331.0, 331.0, 331.0, 331.0, 332.0, 332.0, 332.0, 333.0, 332.0, 332.0, 331.0, 332.0, 331.0, 332.0, 332.0, 333.0, 333.0, 332.0, 332.0, 332.0, 332.0, 332.0, 331.0, 332.0, 332.0, 331.0, 332.0, 331.0, 332.0, 332.0, 333.0, 333.0, 333.0, 333.0, 333.0, 333.0, 333.0, 331.0, 332.0, 333.0, 333.0, 332.0, 333.0, 333.0, 334.0, 333.0, 332.0, 333.0, 331.0, 331.0, 331.0, 332.0, 331.0, 331.0, 332.0, 332.0, 332.0, 332.0, 334.0, 332.0, 331.0, 331.0, 332.0, 333.0, 334.0, 333.0, 332.0, 331.0, 333.0, 332.0, 334.0, 332.0, 332.0, 332.0, 333.0, 332.0, 333.0, 331.0, 333.0, 332.0, 332.0, 332.0, 333.0, 331.0, 331.0, 332.0, 330.0, 332.0, 332.0, 332.0, 331.0, 333.0, 332.0, 332.0, 