{"AcquisitionMatrixPE": 64, "AcquisitionNumber": 1, "AcquisitionTime": "15:08:6.662500", "BandwidthPerPixelPhaseEncode": 28.935, "BaseResolution": 64, "BodyPartExamined": "BRAIN", "CoilString": "HC2_4_6_7", "ConsistencyInfo": "N4_VE11E_LATEST_20181129", "ConversionSoftware": "dcm2niix", "ConversionSoftwareVersion": "v1.0.20190902", "DerivedVendorReportedEchoSpacing": 0.000540003, "DeviceSerialNumber": "166182", "DwellTime": 3.4e-06, "EchoTime": 0.032, "EchoTrainLength": 64, "EffectiveEchoSpacing": 0.000540003, "FlipAngle": 40, "ImageOrientationPatientDICOM": [0.968982, -0.244219, 0.0378318, 0.24699, 0.951831, -0.181694], "ImageType": ["ORIGINAL", "PRIMARY", "M", "ND", "NORM", "MOSAIC"], "ImagingFrequency": 123.256, "InPlanePhaseEncodingDirectionDICOM": "COL", "InstitutionAddress": "PEARSE_STREET_._City_District_IE_D2", "InstitutionName": "TCIN", "InstitutionalDepartmentName": "MRI", "MRAcquisitionType": "2D", "MagneticFieldStrength": 3, "Manufacturer": "Siemens", "ManufacturersModelName": "Prisma", "Modality": "MR", "MultibandAccelerationFactor": 4, "PartialFourier": 1, "PatientPosition": "HFS", "PercentPhaseFOV": 100, "PhaseEncodingDirection": "j-", "PhaseEncodingSteps": 64, "PhaseResolution": 1, "PixelBandwidth": 2300, "ProcedureStepDescription": "Rhodri_Head_BOLD", "ProtocolName": "cmrr_mbep2d_Pictures_AP_RDS", "PulseSequenceDetails": "%SiemensSeq%_ep2d_bold", "ReceiveCoilActiveElements": "HC2,4,6,7", "ReceiveCoilName": "HeadNeck_64", "ReconMatrixPE": 64, "RefLinesPE": 12, "RepetitionTime": 0.61, "SAR": 0.220644, "ScanOptions": "FS", "ScanningSequence": "EP", "SequenceName": "_epfid2d1_64", "SequenceVariant": "SK", "SeriesDescription": "cmrr_mbep2d_Pictures_AP_RDS", "SeriesNumber": 12, "ShimSetting": [-3606, -7449, 3919, 746, -80, 216, 59, 244], "SliceThickness": 3, "SliceTiming": [0.2625, 0, 0.3275, 0.065, 0.3925, 0.13, 0.46, 0.1975, 0.525, 0.2625, 0, 0.3275, 0.065, 0.3925, 0.13, 0.46, 0.1975, 0.525, 0.2625, 0, 0.3275, 0.065, 0.3925, 0.13, 0.46, 0.1975, 0.525, 0.2625, 0, 0.3275, 0.065, 0.3925, 0.13, 0.46, 0.1975, 0.525], "SoftwareVersions": "syngo_MR_E11", "SpacingBetweenSlices": 3.3, "StationName": "AWP166182", "TaskName": "pictures", "TotalReadoutTime": 0.0340202, "TxRefAmp": 248.129, "dcmmeta_affine": [[-2.9069454669952393, 0.7409710884094238, -0.027600523084402084, 73.69666290283203], [0.7326571345329285, 2.8554940223693848, -0.6118289232254028, -109.14786529541016], [0.11349527537822723, 0.5450833439826965, 3.242669105529785, -109.6709976196289], [0.0, 0.0, 0.0, 1.0]], "dcmmeta_reorient_transform": [[0.0, -1.0, 0.0, 63.0], [1.0, 0.0, 0.0, 0.0], [0.0, 0.0, 1.0, 0.0], [0.0, 0.0, 0.0, 1.0]], "dcmmeta_shape": [64, 64, 36, 510], "dcmmeta_slice_dim": 2, "dcmmeta_version": 0.6, "global": {"const": {"AcquisitionMatrix": [64, 0, 0, 64], "AngioFlag": "N", "BitsAllocated": 16, "BitsStored": 12, "BodyPartExamined": "BRAIN", "Columns": 384, "EchoNumbers": 1, "EchoTime": 32.0, "EchoTrainLength": 64, "FlipAngle": 40.0, "HighBit": 11, "ImageOrientationPatient": [0.96898184273538, -0.2442190545011, 0.03783175739678, 0.24699035483083, 0.9518313351923, -0.1816944522174], "ImagePositionPatient": [-704.04449296786, -410.40215424223, -6.2766511988364], "ImageType": ["ORIGINAL", "PRIMARY", "M", "ND", "NORM", "MOSAIC"], "ImagedNucleus": "1H", "ImagingFrequency": 123.256353, "InPlanePhaseEncodingDirection": "COL", "MRAcquisitionType": "2D", "MagneticFieldStrength": 3.0, "Manufacturer": "SIEMENS", "ManufacturerModelName": "Prisma", "Modality": "MR", "NumberOfAverages": 1.0, "NumberOfPhaseEncodingSteps": 64, "PercentPhaseFieldOfView": 100.0, "PercentSampling": 100.0, "PerformedProcedureStepStartTime": "142933.425000", "PhotometricInterpretation": "MONOCHROME2", "PixelBandwidth": 2300.0, "PixelRepresentation": 0, "PixelSpacing": [3.0, 3.0], "ProtocolName": "cmrr_mbep2d_Pictures_AP_RDS", "RepetitionTime": 610.0, "Rows": 384, "SAR": 0.22064373968371, "SamplesPerPixel": 1, "ScanOptions": "FS", "ScanningSequence": "EP", "SequenceName": "*epfid2d1_64", "SequenceVariant": "SK", "SeriesDescription": "cmrr_mbep2d_Pictures_AP_RDS", "SeriesNumber": 12, "SeriesTime": "150820.996000", "SliceLocation": -88.145760320974, "SliceThickness": 3.0, "SmallestImagePixelValue": 0, "SoftwareVersions": "syngo MR E11", "SpacingBetweenSlices": 3.2999999236736, "SpecificCharacterSet": "ISO_IR 100", "StudyID": "1", "StudyTime": "142933.364000", "TransmitCoilName": "Body", "VariableFlipAngleFlag": "N", "WindowCenterWidthExplanation": "Algo1"}, "slices": {}}, "time": {"samples": {"AcquisitionNumber": [1, 2, 3, 4, 5, 6, 7, 8, 9, 10, 11, 12, 13, 14, 15, 16, 17, 18, 19, 20, 21, 22, 23, 24, 25, 26, 27, 28, 29, 30, 31, 32, 33, 34, 35, 36, 37, 38, 39, 40, 41, 42, 43, 44, 45, 46, 47, 48, 49, 50, 51, 52, 53, 54, 55, 56, 57, 58, 59, 60, 61, 62, 63, 64, 65, 66, 67, 68, 69, 70, 71, 72, 73, 74, 75, 76, 77, 78, 79, 80, 81, 82, 83, 84, 85, 86, 87, 88, 89, 90, 91, 92, 93, 94, 95, 96, 97, 98, 99, 100, 101, 102, 103, 104, 105, 106, 107, 108, 109, 110, 111, 112, 113, 114, 115, 116, 117, 118, 119, 120, 121, 122, 123, 124, 125, 126, 127, 128, 129, 130, 131, 132, 133, 134, 135, 136, 137, 138, 139, 140, 141, 142, 143, 144, 145, 146, 147, 148, 149, 150, 151, 152, 153, 154, 155, 156, 157, 158, 159, 160, 161, 162, 163, 164, 165, 166, 167, 168, 169, 170, 171, 172, 173, 174, 175, 176, 177, 178, 179, 180, 181, 182, 183, 184, 185, 186, 187, 188, 189, 190, 191, 192, 193, 194, 195, 196, 197, 198, 199, 200, 201, 202, 203, 204, 205, 206, 207, 208, 209, 210, 211, 212, 213, 214, 215, 216, 217, 218, 219, 220, 221, 222, 223, 224, 225, 226, 227, 228, 229, 230, 231, 232, 233, 234, 235, 236, 237, 238, 239, 240, 241, 242, 243, 244, 245, 246, 247, 248, 249, 250, 251, 252, 253, 254, 255, 256, 257, 258, 259, 260, 261, 262, 263, 264, 265, 266, 267, 268, 269, 270, 271, 272, 273, 274, 275, 276, 277, 278, 279, 280, 281, 282, 283, 284, 285, 286, 287, 288, 289, 290, 291, 292, 293, 294, 295, 296, 297, 298, 299, 300, 301, 302, 303, 304, 305, 306, 307, 308, 309, 310, 311, 312, 313, 314, 315, 316, 317, 318, 319, 320, 321, 322, 323, 324, 325, 326, 327, 328, 329, 330, 331, 332, 333, 334, 335, 336, 337, 338, 339, 340, 341, 342, 343, 344, 345, 346, 347, 348, 349, 350, 351, 352, 353, 354, 355, 356, 357, 358, 359, 360, 361, 362, 363, 364, 365, 366, 367, 368, 369, 370, 371, 372, 373, 374, 375, 376, 377, 378, 379, 380, 381, 382, 383, 384, 385, 386, 387, 388, 389, 390, 391, 392, 393, 394, 395, 396, 397, 398, 399, 400, 401, 402, 403, 404, 405, 406, 407, 408, 409, 410, 411, 412, 413, 414, 415, 416, 417, 418, 419, 420, 421, 422, 423, 424, 425, 426, 427, 428, 429, 430, 431, 432, 433, 434, 435, 436, 437, 438, 439, 440, 441, 442, 443, 444, 445, 446, 447, 448, 449, 450, 451, 452, 453, 454, 455, 456, 457, 458, 459, 460, 461, 462, 463, 464, 465, 466, 467, 468, 469, 470, 471, 472, 473, 474, 475, 476, 477, 478, 479, 480, 481, 482, 483, 484, 485, 486, 487, 488, 489, 490, 491, 492, 493, 494, 495, 496, 497, 498, 499, 500, 501, 502, 503, 504, 505, 506, 507, 508, 509, 510], "AcquisitionTime": ["150806.662500", "150807.272500", "150807.882500", "150808.492500", "150809.102500", "150809.712500", "150810.322500", "150810.932500", "150811.542500", "150812.152500", "150812.762500", "150813.372500", "150813.982500", "150814.592500", "150815.202500", "150815.812500", "150816.422500", "150817.032500", "150817.642500", "150818.252500", "150818.862500", "150819.472500", "150820.082500", "150820.692500", "150821.302500", "150821.912500", "150822.522500", "150823.132500", "150823.742500", "150824.352500", "150824.962500", "150825.572500", "150826.182500", "150826.792500", "150827.402500", "150828.012500", "150828.622500", "150829.232500", "150829.842500", "150830.452500", "150831.062500", "150831.672500", "150832.282500", "150832.892500", "150833.502500", "150834.112500", "150834.722500", "150835.332500", "150835.942500", "150836.552500", "150837.162500", "150837.772500", "150838.382500", "150838.992500", "150839.602500", "150840.212500", "150840.822500", "150841.432500", "150842.042500", "150842.652500", "150843.262500", "150843.872500", "150844.482500", "150845.092500", "150845.702500", "150846.312500", "150846.922500", "150847.532500", "150848.142500", "150848.752500", "150849.362500", "150849.972500", "150850.582500", "150851.192500", "150851.802500", "150852.412500", "150853.022500", "150853.632500", "150854.242500", "150854.852500", "150855.462500", "150856.072500", "150856.682500", "150857.292500", "150857.902500", "150858.512500", "150859.122500", "150859.732500", "150900.342500", "150900.952500", "150901.562500", "150902.172500", "150902.782500", "150903.392500", "150904.002500", "150904.612500", "150905.222500", "150905.832500", "150906.442500", "150907.052500", "150907.662500", "150908.272500", "150908.882500", "150909.492500", "150910.102500", "150910.712500", "150911.322500", "150911.932500", "150912.542500", "150913.152500", "150913.762500", "150914.372500", "150914.982500", "150915.592500", "150916.202500", "150916.812500", "150917.422500", "150918.032500", "150918.642500", "150919.252500", "150919.862500", "150920.472500", "150921.082500", "150921.692500", "150922.302500", "150922.912500", "150923.522500", "150924.132500", "150924.742500", "150925.352500", "150925.962500", "150926.572500", "150927.182500", "150927.792500", "150928.402500", "150929.012500", "150929.622500", "150930.232500", "150930.842500", "150931.452500", "150932.062500", "150932.672500", "150933.282500", "150933.892500", "150934.502500", "150935.112500", "150935.722500", "150936.332500", "150936.942500", "150937.552500", "150938.162500", "150938.772500", "150939.382500", "150939.992500", "150940.602500", "150941.212500", "150941.822500", "150942.432500", "150943.042500", "150943.652500", "150944.262500", "150944.872500", "150945.482500", "150946.092500", "150946.702500", "150947.312500", "150947.922500", "150948.532500", "150949.142500", "150949.752500", "150950.362500", "150950.972500", "150951.582500", "150952.192500", "150952.802500", "150953.412500", "150954.022500", "150954.632500", "150955.242500", "150955.852500", "150956.462500", "150957.072500", "150957.682500", "150958.292500", "150958.902500", "150959.512500", "151000.122500", "151000.732500", "151001.342500", "151001.952500", "151002.562500", "151003.172500", "151003.782500", "151004.392500", "151005.002500", "151005.612500", "151006.222500", "151006.832500", "151007.442500", "151008.052500", "151008.662500", "151009.272500", "151009.882500", "151010.492500", "151011.102500", "151011.712500", "151012.322500", "151012.932500", "151013.542500", "151014.152500", "151014.762500", "151015.372500", "151015.982500", "151016.592500", "151017.202500", "151017.812500", "151018.422500", "151019.032500", "151019.642500", "151020.252500", "151020.862500", "151021.472500", "151022.082500", "151022.692500", "151023.302500", "151023.912500", "151024.522500", "151025.132500", "151025.742500", "151026.352500", "151026.962500", "151027.572500", "151028.182500", "151028.792500", "151029.402500", "151030.012500", "151030.622500", "151031.232500", "151031.842500", "151032.452500", "151033.062500", "151033.672500", "151034.282500", "151034.892500", "151035.502500", "151036.112500", "151036.722500", "151037.332500", "151037.942500", "151038.552500", "151039.162500", "151039.772500", "151040.382500", "151040.992500", "151041.602500", "151042.212500", "151042.822500", "151043.432500", "151044.042500", "151044.652500", "151045.262500", "151045.872500", "151046.482500", "151047.092500", "151047.702500", "151048.312500", "151048.922500", "151049.532500", "151050.142500", "151050.752500", "151051.362500", "151051.972500", "151052.582500", "151053.192500", "151053.802500", "151054.412500", "151055.022500", "151055.632500", "151056.242500", "151056.852500", "151057.462500", "151058.072500", "151058.682500", "151059.292500", "151059.902500", "151100.512500", "151101.122500", "151101.732500", "151102.342500", "151102.952500", "151103.562500", "151104.172500", "151104.782500", "151105.392500", "151106.002500", "151106.612500", "151107.222500", "151107.832500", "151108.442500", "151109.052500", "151109.662500", "151110.272500", "151110.882500", "151111.492500", "151112.102500", "151112.712500", "151113.322500", "151113.932500", "151114.542500", "151115.152500", "151115.762500", "151116.372500", "151116.982500", "151117.592500", "151118.202500", "151118.812500", "151119.422500", "151120.032500", "151120.642500", "151121.252500", "151121.862500", "151122.472500", "151123.082500", "151123.692500", "151124.302500", "151124.912500", "151125.522500", "151126.132500", "151126.742500", "151127.352500", "151127.962500", "151128.572500", "151129.182500", "151129.792500", "151130.402500", "151131.012500", "151131.622500", "151132.232500", "151132.842500", "151133.452500", "151134.062500", "151134.672500", "151135.282500", "151135.892500", "151136.502500", "151137.112500", "151137.722500", "151138.332500", "151138.942500", "151139.552500", "151140.162500", "151140.772500", "151141.382500", "151141.992500", "151142.602500", "151143.212500", "151143.822500", "151144.432500", "151145.042500", "151145.652500", "151146.262500", "151146.872500", "151147.482500", "151148.092500", "151148.702500", "151149.312500", "151149.922500", "151150.532500", "151151.142500", "151151.752500", "151152.362500", "151152.972500", "151153.582500", "151154.192500", "151154.802500", "151155.412500", "151156.022500", "151156.632500", "151157.242500", "151157.852500", "151158.462500", "151159.072500", "151159.682500", "151200.292500", "151200.902500", "151201.512500", "151202.122500", "151202.732500", "151203.342500", "151203.952500", "151204.562500", "151205.172500", "151205.782500", "151206.392500", "151207.002500", "151207.612500", "151208.222500", "151208.832500", "151209.442500", "151210.052500", "151210.662500", "151211.272500", "151211.882500", "151212.492500", "151213.102500", "151213.712500", "151214.322500", "151214.932500", "151215.542500", "151216.152500", "151216.762500", "151217.372500", "151217.982500", "151218.592500", "151219.202500", "151219.812500", "151220.422500", "151221.032500", "151221.642500", "151222.252500", "151222.862500", "151223.472500", "151224.082500", "151224.692500", "151225.302500", "151225.912500", "151226.522500", "151227.132500", "151227.742500", "151228.352500", "151228.962500", "151229.572500", "151230.182500", "151230.792500", "151231.402500", "151232.012500", "151232.622500", "151233.232500", "151233.842500", "151234.452500", "151235.062500", "151235.672500", "151236.282500", "151236.892500", "151237.502500", "151238.112500", "151238.722500", "151239.332500", "151239.942500", "151240.552500", "151241.162500", "151241.772500", "151242.382500", "151242.992500", "151243.602500", "151244.212500", "151244.822500", "151245.432500", "151246.042500", "151246.652500", "151247.262500", "151247.872500", "151248.482500", "151249.092500", "151249.702500", "151250.312500", "151250.922500", "151251.532500", "151252.142500", "151252.752500", "151253.362500", "151253.972500", "151254.582500", "151255.192500", "151255.802500", "151256.412500", "151257.022500", "151257.632500", "151258.242500", "151258.852500", "151259.462500", "151300.072500", "151300.682500", "151301.292500", "151301.902500", "151302.512500", "151303.122500", "151303.732500", "151304.342500", "151304.952500", "151305.562500", "151306.172500", "151306.782500", "151307.392500", "151308.002500", "151308.612500", "151309.222500", "151309.832500", "151310.442500", "151311.052500", "151311.662500", "151312.272500", "151312.882500", "151313.492500", "151314.102500", "151314.712500", "151315.322500", "151315.932500", "151316.542500", "151317.152500"], "ContentTime": ["150821.001000", "150821.004000", "150821.007000", "150821.009000", "150821.011000", "150821.014000", "150821.016000", "150821.019000", "150821.021000", "150821.023000", "150821.026000", "150821.028000", "150821.031000", "150821.033000", "150821.035000", "150821.038000", "150821.040000", "150821.042000", "150821.045000", "150821.047000", "150821.050000", "150821.056000", "150840.995000", "150840.998000", "150841.000000", "150841.003000", "150841.005000", "150841.008000", "150841.015000", "150841.017000", "150841.020000", "150841.022000", "150841.025000", "150841.027000", "150841.029000", "150841.032000", "150841.034000", "150841.037000", "150841.039000", "150841.042000", "150841.044000", "150841.046000", "150841.053000", "150841.056000", "150841.058000", "150841.060000", "150841.063000", "150841.065000", "150841.067000", "150841.070000", "150841.072000", "150841.075000", "150841.077000", "150841.079000", "150841.082000", "150900.995000", "150900.998000", "150901.001000", "150901.004000", "150901.006000", "150901.009000", "150901.011000", "150901.014000", "150901.016000", "150901.018000", "150901.021000", "150901.023000", "150901.025000", "150901.028000", "150901.030000", "150901.032000", "150901.035000", "150901.037000", "150901.040000", "150901.042000", "150901.053000", "150901.055000", "150901.057000", "150901.060000", "150901.062000", "150901.064000", "150901.067000", "150901.069000", "150901.072000", "150901.074000", "150901.077000", "150901.079000", "150901.081000", "150920.995000", "150920.998000", "150921.000000", "150921.003000", "150921.006000", "150921.008000", "150921.011000", "150921.013000", "150921.015000", "150921.018000", "150921.020000", "150921.023000", "150921.025000", "150921.027000", "150921.030000", "150921.032000", "150921.034000", "150921.037000", "150921.039000", "150921.042000", "150921.044000", "150921.046000", "150921.049000", "150921.051000", "150921.054000", "150921.056000", "150921.058000", "150921.061000", "150921.063000", "150921.066000", "150921.068000", "150921.070000", "150921.073000", "150940.994000", "150940.997000", "150940.999000", "150941.002000", "150941.004000", "150941.006000", "150941.009000", "150941.011000", "150941.014000", "150941.016000", "150941.019000", "150941.021000", "150941.024000", "150941.027000", "150941.029000", "150941.031000", "150941.034000", "150941.036000", "150941.038000", "150941.041000", "150941.043000", "150941.046000", "150941.048000", "150941.050000", "150941.053000", "150941.055000", "150941.058000", "150941.060000", "150941.062000", "150941.065000", "150941.067000", "150941.070000", "151000.994000", "151000.997000", "151001.001000", "151001.004000", "151001.006000", "151001.009000", "151001.011000", "151001.013000", "151001.016000", "151001.018000", "151001.021000", "151001.023000", "151001.025000", "151001.028000", "151001.030000", "151001.033000", "151001.035000", "151001.038000", "151001.040000", "151001.042000", "151001.045000", "151001.047000", "151001.050000", "151001.052000", "151001.055000", "151001.057000", "151001.059000", "151001.062000", "151001.064000", "151001.066000", "151001.069000", "151001.071000", "151001.073000", "151020.994000", "151020.997000", "151020.999000", "151021.002000", "151021.004000", "151021.006000", "151021.009000", "151021.011000", "151021.014000", "151021.016000", "151021.018000", "151021.021000", "151021.023000", "151021.025000", "151021.028000", "151021.030000", "151021.033000", "151021.035000", "151021.037000", "151021.040000", "151021.042000", "151021.045000", "151021.047000", "151021.049000", "151021.052000", "151021.054000", "151021.056000", "151021.059000", "151021.061000", "151021.064000", "151021.066000", "151021.068000", "151021.071000", "151040.995000", "151040.998000", "151041.000000", "151041.003000", "151041.005000", "151041.008000", "151041.010000", "151041.012000", "151041.029000", "151041.031000", "151041.034000", "151041.036000", "151041.039000", "151041.041000", "151041.043000", "151041.046000", "151041.048000", "151041.050000", "151041.053000", "151041.063000", "151041.065000", "151041.067000", "151041.070000", "151041.072000", "151041.075000", "151041.077000", "151041.079000", "151041.082000", "151041.084000", "151041.086000", "151041.089000", "151041.091000", "151041.094000", "151100.995000", "151100.998000", "151101.000000", "151101.003000", "151101.005000", "151101.008000", "151101.010000", "151101.012000", "151101.015000", "151101.017000", "151101.020000", "151101.022000", "151101.025000", "151101.027000", "151101.029000", "151101.032000", "151101.034000", "151101.036000", "151101.039000", "151101.041000", "151101.044000", "151101.046000", "151101.048000", "151101.051000", "151101.053000", "151101.055000", "151101.058000", "151101.060000", "151101.063000", "151101.065000", "151101.067000", "151101.070000", "151101.072000", "151120.995000", "151120.998000", "151121.000000", "151121.003000", "151121.005000", "151121.007000", "151121.010000", "151121.012000", "151121.014000", "151121.017000", "151121.019000", "151121.021000", "151121.024000", "151121.026000", "151121.029000", "151121.031000", "151121.033000", "151121.036000", "151121.038000", "151121.040000", "151121.043000", "151121.045000", "151121.048000", "151121.050000", "151121.052000", "151121.055000", "151121.057000", "151121.060000", "151121.062000", "151121.065000", "151121.067000", "151121.070000", "151140.995000", "151140.998000", "151141.001000", "151141.004000", "151141.006000", "151141.009000", "151141.011000", "151141.014000", "151141.016000", "151141.019000", "151141.021000", "151141.023000", "151141.026000", "151141.028000", "151141.031000", "151141.033000", "151141.035000", "151141.038000", "151141.041000", "151141.043000", "151141.046000", "151141.048000", "151141.051000", "151141.053000", "151141.055000", "151141.058000", "151141.060000", "151141.063000", "151141.065000", "151141.067000", "151141.072000", "151141.074000", "151141.076000", "151200.994000", "151200.997000", "151200.999000", "151201.002000", "151201.004000", "151201.006000", "151201.009000", "151201.011000", "151201.014000", "151201.016000", "151201.018000", "151201.021000", "151201.023000", "151201.025000", "151201.028000", "151201.030000", "151201.032000", "151201.035000", "151201.037000", "151201.040000", "151201.042000", "151201.044000", "151201.047000", "151201.049000", "151201.051000", "151201.054000", "151201.058000", "151201.061000", "151201.063000", "151201.066000", "151201.068000", "151201.070000", "151201.073000", "151220.994000", "151220.997000", "151220.999000", "151221.002000", "151221.004000", "151221.007000", "151221.009000", "151221.012000", "151221.014000", "151221.017000", "151221.019000", "151221.021000", "151221.024000", "151221.026000", "151221.029000", "151221.031000", "151221.033000", "151221.036000", "151221.038000", "151221.040000", "151221.043000", "151221.045000", "151221.047000", "151221.050000", "151221.052000", "151221.055000", "151221.057000", "151221.059000", "151221.062000", "151221.064000", "151221.066000", "151221.069000", "151221.071000", "151240.994000", "151240.997000", "151240.999000", "151241.002000", "151241.004000", "151241.007000", "151241.009000", "151241.011000", "151241.014000", "151241.016000", "151241.018000", "151241.021000", "151241.023000", "151241.026000", "151241.028000", "151241.031000", "151241.033000", "151241.035000", "151241.038000", "151241.040000", "151241.043000", "151241.045000", "151241.048000", "151241.050000", "151241.053000", "151241.055000", "151241.057000", "151241.060000", "151241.062000", "151241.065000", "151241.067000", "151241.069000", "151241.072000", "151300.995000", "151300.998000", "151301.000000", "151301.004000", "151301.006000", "151301.017000", "151301.020000", "151301.022000", "151301.025000", "151301.027000", "151301.030000", "151301.032000", "151301.034000", "151301.037000", "151301.039000", "151301.042000", "151301.044000", "151301.046000", "151301.049000", "151301.051000", "151301.054000", "151301.056000", "151301.059000", "151301.061000", "151301.077000", "151301.080000", "151301.082000", "151301.084000", "151301.087000", "151301.089000", "151301.092000", "151301.094000", "151318.149000", "151318.151000", "151318.154000", "151318.156000", "151318.159000", "151318.161000", "151318.164000", "151318.166000", "151318.168000", "151318.171000", "151318.173000", "151318.176000", "151318.178000", "151318.180000", "151318.183000", "151318.185000", "151318.188000", "151318.190000", "151318.192000", "151318.195000", "151318.197000", "151318.200000", "151318.202000", "151318.204000", "151318.207000", "151318.209000", "151318.212000", "151318.214000", "151318.217000"], "InstanceCreationTime": ["150821.001000", "150821.004000", "150821.007000", "150821.009000", "150821.011000", "150821.014000", "150821.016000", "150821.019000", "150821.021000", "150821.023000", "150821.026000", "150821.028000", "150821.031000", "150821.033000", "150821.035000", "150821.038000", "150821.040000", "150821.042000", "150821.045000", "150821.047000", "150821.050000", "150821.056000", "150840.995000", "150840.998000", "150841.000000", "150841.003000", "150841.005000", "150841.008000", "150841.015000", "150841.017000", "150841.020000", "150841.022000", "150841.025000", "150841.027000", "150841.029000", "150841.032000", "150841.034000", "150841.037000", "150841.039000", "150841.042000", "150841.044000", "150841.046000", "150841.053000", "150841.056000", "150841.058000", "150841.060000", "150841.063000", "150841.065000", "150841.067000", "150841.070000", "150841.072000", "150841.075000", "150841.077000", "150841.079000", "150841.082000", "150900.995000", "150900.998000", "150901.001000", "150901.004000", "150901.006000", "150901.009000", "150901.011000", "150901.014000", "150901.016000", "150901.018000", "150901.021000", "150901.023000", "150901.025000", "150901.028000", "150901.030000", "150901.032000", "150901.035000", "150901.037000", "150901.040000", "150901.042000", "150901.053000", "150901.055000", "150901.057000", "150901.060000", "150901.062000", "150901.064000", "150901.067000", "150901.069000", "150901.072000", "150901.074000", "150901.077000", "150901.079000", "150901.081000", "150920.995000", "150920.998000", "150921.000000", "150921.003000", "150921.006000", "150921.008000", "150921.011000", "150921.013000", "150921.015000", "150921.018000", "150921.020000", "150921.023000", "150921.025000", "150921.027000", "150921.030000", "150921.032000", "150921.034000", "150921.037000", "150921.039000", "150921.042000", "150921.044000", "150921.046000", "150921.049000", "150921.051000", "150921.054000", "150921.056000", "150921.058000", "150921.061000", "150921.063000", "150921.066000", "150921.068000", "150921.070000", "150921.073000", "150940.994000", "150940.997000", "150940.999000", "150941.002000", "150941.004000", "150941.006000", "150941.009000", "150941.011000", "150941.014000", "150941.016000", "150941.019000", "150941.021000", "150941.024000", "150941.027000", "150941.029000", "150941.031000", "150941.034000", "150941.036000", "150941.038000", "150941.041000", "150941.043000", "150941.046000", "150941.048000", "150941.050000", "150941.053000", "150941.055000", "150941.058000", "150941.060000", "150941.062000", "150941.065000", "150941.067000", "150941.070000", "151000.994000", "151000.997000", "151001.001000", "151001.004000", "151001.006000", "151001.009000", "151001.011000", "151001.013000", "151001.016000", "151001.018000", "151001.021000", "151001.023000", "151001.025000", "151001.028000", "151001.030000", "151001.033000", "151001.035000", "151001.038000", "151001.040000", "151001.042000", "151001.045000", "151001.047000", "151001.050000", "151001.052000", "151001.055000", "151001.057000", "151001.059000", "151001.062000", "151001.064000", "151001.066000", "151001.069000", "151001.071000", "151001.073000", "151020.994000", "151020.997000", "151020.999000", "151021.002000", "151021.004000", "151021.006000", "151021.009000", "151021.011000", "151021.014000", "151021.016000", "151021.018000", "151021.021000", "151021.023000", "151021.025000", "151021.028000", "151021.030000", "151021.033000", "151021.035000", "151021.037000", "151021.040000", "151021.042000", "151021.045000", "151021.047000", "151021.049000", "151021.052000", "151021.054000", "151021.056000", "151021.059000", "151021.061000", "151021.064000", "151021.066000", "151021.068000", "151021.071000", "151040.995000", "151040.998000", "151041.000000", "151041.003000", "151041.005000", "151041.008000", "151041.010000", "151041.012000", "151041.029000", "151041.031000", "151041.034000", "151041.036000", "151041.039000", "151041.041000", "151041.043000", "151041.046000", "151041.048000", "151041.050000", "151041.053000", "151041.063000", "151041.065000", "151041.067000", "151041.070000", "151041.072000", "151041.075000", "151041.077000", "151041.079000", "151041.082000", "151041.084000", "151041.086000", "151041.089000", "151041.091000", "151041.094000", "151100.995000", "151100.998000", "151101.000000", "151101.003000", "151101.005000", "151101.008000", "151101.010000", "151101.012000", "151101.015000", "151101.017000", "151101.020000", "151101.022000", "151101.025000", "151101.027000", "151101.029000", "151101.032000", "151101.034000", "151101.036000", "151101.039000", "151101.041000", "151101.044000", "151101.046000", "151101.048000", "151101.051000", "151101.053000", "151101.055000", "151101.058000", "151101.060000", "151101.063000", "151101.065000", "151101.067000", "151101.070000", "151101.072000", "151120.995000", "151120.998000", "151121.000000", "151121.003000", "151121.005000", "151121.007000", "151121.010000", "151121.012000", "151121.014000", "151121.017000", "151121.019000", "151121.021000", "151121.024000", "151121.026000", "151121.029000", "151121.031000", "151121.033000", "151121.036000", "151121.038000", "151121.040000", "151121.043000", "151121.045000", "151121.048000", "151121.050000", "151121.052000", "151121.055000", "151121.057000", "151121.060000", "151121.062000", "151121.065000", "151121.067000", "151121.070000", "151140.995000", "151140.998000", "151141.001000", "151141.004000", "151141.006000", "151141.009000", "151141.011000", "151141.014000", "151141.016000", "151141.019000", "151141.021000", "151141.023000", "151141.026000", "15114