{"AcquisitionMatrixPE": 64, "AcquisitionNumber": 1, "AcquisitionTime": "15:14:49.882500", "BandwidthPerPixelPhaseEncode": 28.935, "BaseResolution": 64, "BodyPartExamined": "BRAIN", "CoilString": "HC2_4_6_7", "ConsistencyInfo": "N4_VE11E_LATEST_20181129", "ConversionSoftware": "dcm2niix", "ConversionSoftwareVersion": "v1.0.20190902", "DerivedVendorReportedEchoSpacing": 0.000540003, "DeviceSerialNumber": "166182", "DwellTime": 3.4e-06, "EchoTime": 0.032, "EchoTrainLength": 64, "EffectiveEchoSpacing": 0.000540003, "FlipAngle": 40, "ImageOrientationPatientDICOM": [0.968982, -0.244219, 0.0378318, 0.24699, 0.951831, -0.181694], "ImageType": ["ORIGINAL", "PRIMARY", "M", "ND", "NORM", "MOSAIC"], "ImagingFrequency": 123.256, "InPlanePhaseEncodingDirectionDICOM": "COL", "InstitutionAddress": "PEARSE_STREET_._City_District_IE_D2", "InstitutionName": "TCIN", "InstitutionalDepartmentName": "MRI", "MRAcquisitionType": "2D", "MagneticFieldStrength": 3, "Manufacturer": "Siemens", "ManufacturersModelName": "Prisma", "Modality": "MR", "MultibandAccelerationFactor": 4, "PartialFourier": 1, "PatientPosition": "HFS", "PercentPhaseFOV": 100, "PhaseEncodingDirection": "j-", "PhaseEncodingSteps": 64, "PhaseResolution": 1, "PixelBandwidth": 2300, "ProcedureStepDescription": "Rhodri_Head_BOLD", "ProtocolName": "cmrr_mbep2d_Pictures_AP_RDS", "PulseSequenceDetails": "%SiemensSeq%_ep2d_bold", "ReceiveCoilActiveElements": "HC2,4,6,7", "ReceiveCoilName": "HeadNeck_64", "ReconMatrixPE": 64, "RefLinesPE": 12, "RepetitionTime": 0.61, "SAR": 0.220644, "ScanOptions": "FS", "ScanningSequence": "EP", "SequenceName": "_epfid2d1_64", "SequenceVariant": "SK", "SeriesDescription": "cmrr_mbep2d_Pictures_AP_RDS", "SeriesNumber": 14, "ShimSetting": [-3606, -7449, 3919, 746, -80, 216, 59, 244], "SliceThickness": 3, "SliceTiming": [0.2625, 0, 0.3275, 0.065, 0.3925, 0.1325, 0.46, 0.1975, 0.525, 0.2625, 0, 0.3275, 0.065, 0.3925, 0.1325, 0.46, 0.1975, 0.525, 0.2625, 0, 0.3275, 0.065, 0.3925, 0.1325, 0.46, 0.1975, 0.525, 0.2625, 0, 0.3275, 0.065, 0.3925, 0.1325, 0.46, 0.1975, 0.525], "SoftwareVersions": "syngo_MR_E11", "SpacingBetweenSlices": 3.3, "StationName": "AWP166182", "TaskName": "pictures", "TotalReadoutTime": 0.0340202, "TxRefAmp": 248.129, "dcmmeta_affine": [[-2.9069454669952393, 0.7409710884094238, -0.027600523084402084, 73.69666290283203], [0.7326571345329285, 2.8554940223693848, -0.6118289232254028, -109.14786529541016], [0.11349527537822723, 0.5450833439826965, 3.242669105529785, -109.6709976196289], [0.0, 0.0, 0.0, 1.0]], "dcmmeta_reorient_transform": [[0.0, -1.0, 0.0, 63.0], [1.0, 0.0, 0.0, 0.0], [0.0, 0.0, 1.0, 0.0], [0.0, 0.0, 0.0, 1.0]], "dcmmeta_shape": [64, 64, 36, 510], "dcmmeta_slice_dim": 2, "dcmmeta_version": 0.6, "global": {"const": {"AcquisitionMatrix": [64, 0, 0, 64], "AngioFlag": "N", "BitsAllocated": 16, "BitsStored": 12, "BodyPartExamined": "BRAIN", "Columns": 384, "EchoNumbers": 1, "EchoTime": 32.0, "EchoTrainLength": 64, "FlipAngle": 40.0, "HighBit": 11, "ImageOrientationPatient": [0.96898184273538, -0.2442190545011, 0.03783175739678, 0.24699035483083, 0.9518313351923, -0.1816944522174], "ImagePositionPatient": [-704.04449296786, -410.40215424223, -6.2766511988364], "ImageType": ["ORIGINAL", "PRIMARY", "M", "ND", "NORM", "MOSAIC"], "ImagedNucleus": "1H", "ImagingFrequency": 123.256356, "InPlanePhaseEncodingDirection": "COL", "MRAcquisitionType": "2D", "MagneticFieldStrength": 3.0, "Manufacturer": "SIEMENS", "ManufacturerModelName": "Prisma", "Modality": "MR", "NumberOfAverages": 1.0, "NumberOfPhaseEncodingSteps": 64, "PercentPhaseFieldOfView": 100.0, "PercentSampling": 100.0, "PerformedProcedureStepStartTime": "142933.425000", "PhotometricInterpretation": "MONOCHROME2", "PixelBandwidth": 2300.0, "PixelRepresentation": 0, "PixelSpacing": [3.0, 3.0], "ProtocolName": "cmrr_mbep2d_Pictures_AP_RDS", "RepetitionTime": 610.0, "Rows": 384, "SAR": 0.22064373968371, "SamplesPerPixel": 1, "ScanOptions": "FS", "ScanningSequence": "EP", "SequenceName": "*epfid2d1_64", "SequenceVariant": "SK", "SeriesDescription": "cmrr_mbep2d_Pictures_AP_RDS", "SeriesNumber": 14, "SeriesTime": "151508.473000", "SliceLocation": -88.145760320974, "SliceThickness": 3.0, "SmallestImagePixelValue": 0, "SoftwareVersions": "syngo MR E11", "SpacingBetweenSlices": 3.2999999236736, "SpecificCharacterSet": "ISO_IR 100", "StudyID": "1", "StudyTime": "142933.364000", "TransmitCoilName": "Body", "VariableFlipAngleFlag": "N", "WindowCenterWidthExplanation": "Algo1"}, "slices": {}}, "time": {"samples": {"AcquisitionNumber": [1, 2, 3, 4, 5, 6, 7, 8, 9, 10, 11, 12, 13, 14, 15, 16, 17, 18, 19, 20, 21, 22, 23, 24, 25, 26, 27, 28, 29, 30, 31, 32, 33, 34, 35, 36, 37, 38, 39, 40, 41, 42, 43, 44, 45, 46, 47, 48, 49, 50, 51, 52, 53, 54, 55, 56, 57, 58, 59, 60, 61, 62, 63, 64, 65, 66, 67, 68, 69, 70, 71, 72, 73, 74, 75, 76, 77, 78, 79, 80, 81, 82, 83, 84, 85, 86, 87, 88, 89, 90, 91, 92, 93, 94, 95, 96, 97, 98, 99, 100, 101, 102, 103, 104, 105, 106, 107, 108, 109, 110, 111, 112, 113, 114, 115, 116, 117, 118, 119, 120, 121, 122, 123, 124, 125, 126, 127, 128, 129, 130, 131, 132, 133, 134, 135, 136, 137, 138, 139, 140, 141, 142, 143, 144, 145, 146, 147, 148, 149, 150, 151, 152, 153, 154, 155, 156, 157, 158, 159, 160, 161, 162, 163, 164, 165, 166, 167, 168, 169, 170, 171, 172, 173, 174, 175, 176, 177, 178, 179, 180, 181, 182, 183, 184, 185, 186, 187, 188, 189, 190, 191, 192, 193, 194, 195, 196, 197, 198, 199, 200, 201, 202, 203, 204, 205, 206, 207, 208, 209, 210, 211, 212, 213, 214, 215, 216, 217, 218, 219, 220, 221, 222, 223, 224, 225, 226, 227, 228, 229, 230, 231, 232, 233, 234, 235, 236, 237, 238, 239, 240, 241, 242, 243, 244, 245, 246, 247, 248, 249, 250, 251, 252, 253, 254, 255, 256, 257, 258, 259, 260, 261, 262, 263, 264, 265, 266, 267, 268, 269, 270, 271, 272, 273, 274, 275, 276, 277, 278, 279, 280, 281, 282, 283, 284, 285, 286, 287, 288, 289, 290, 291, 292, 293, 294, 295, 296, 297, 298, 299, 300, 301, 302, 303, 304, 305, 306, 307, 308, 309, 310, 311, 312, 313, 314, 315, 316, 317, 318, 319, 320, 321, 322, 323, 324, 325, 326, 327, 328, 329, 330, 331, 332, 333, 334, 335, 336, 337, 338, 339, 340, 341, 342, 343, 344, 345, 346, 347, 348, 349, 350, 351, 352, 353, 354, 355, 356, 357, 358, 359, 360, 361, 362, 363, 364, 365, 366, 367, 368, 369, 370, 371, 372, 373, 374, 375, 376, 377, 378, 379, 380, 381, 382, 383, 384, 385, 386, 387, 388, 389, 390, 391, 392, 393, 394, 395, 396, 397, 398, 399, 400, 401, 402, 403, 404, 405, 406, 407, 408, 409, 410, 411, 412, 413, 414, 415, 416, 417, 418, 419, 420, 421, 422, 423, 424, 425, 426, 427, 428, 429, 430, 431, 432, 433, 434, 435, 436, 437, 438, 439, 440, 441, 442, 443, 444, 445, 446, 447, 448, 449, 450, 451, 452, 453, 454, 455, 456, 457, 458, 459, 460, 461, 462, 463, 464, 465, 466, 467, 468, 469, 470, 471, 472, 473, 474, 475, 476, 477, 478, 479, 480, 481, 482, 483, 484, 485, 486, 487, 488, 489, 490, 491, 492, 493, 494, 495, 496, 497, 498, 499, 500, 501, 502, 503, 504, 505, 506, 507, 508, 509, 510], "AcquisitionTime": ["151449.882500", "151450.492500", "151451.102500", "151451.712500", "151452.322500", "151452.932500", "151453.542500", "151454.152500", "151454.762500", "151455.372500", "151455.982500", "151456.592500", "151457.202500", "151457.812500", "151458.422500", "151459.032500", "151459.642500", "151500.252500", "151500.862500", "151501.472500", "151502.082500", "151502.692500", "151503.302500", "151503.912500", "151504.522500", "151505.132500", "151505.742500", "151506.352500", "151506.962500", "151507.572500", "151508.182500", "151508.792500", "151509.402500", "151510.012500", "151510.622500", "151511.232500", "151511.842500", "151512.452500", "151513.062500", "151513.672500", "151514.282500", "151514.892500", "151515.502500", "151516.112500", "151516.722500", "151517.332500", "151517.942500", "151518.552500", "151519.162500", "151519.772500", "151520.382500", "151520.992500", "151521.602500", "151522.212500", "151522.822500", "151523.432500", "151524.042500", "151524.652500", "151525.262500", "151525.872500", "151526.482500", "151527.092500", "151527.702500", "151528.312500", "151528.922500", "151529.532500", "151530.142500", "151530.752500", "151531.362500", "151531.972500", "151532.582500", "151533.192500", "151533.802500", "151534.412500", "151535.022500", "151535.632500", "151536.242500", "151536.852500", "151537.462500", "151538.072500", "151538.682500", "151539.292500", "151539.902500", "151540.512500", "151541.122500", "151541.732500", "151542.342500", "151542.952500", "151543.562500", "151544.172500", "151544.782500", "151545.392500", "151546.002500", "151546.612500", "151547.222500", "151547.832500", "151548.442500", "151549.052500", "151549.662500", "151550.272500", "151550.882500", "151551.492500", "151552.102500", "151552.712500", "151553.322500", "151553.932500", "151554.542500", "151555.152500", "151555.762500", "151556.372500", "151556.982500", "151557.592500", "151558.202500", "151558.812500", "151559.422500", "151600.032500", "151600.642500", "151601.252500", "151601.862500", "151602.472500", "151603.082500", "151603.692500", "151604.302500", "151604.912500", "151605.522500", "151606.132500", "151606.742500", "151607.352500", "151607.962500", "151608.572500", "151609.182500", "151609.792500", "151610.402500", "151611.012500", "151611.622500", "151612.232500", "151612.842500", "151613.452500", "151614.062500", "151614.672500", "151615.282500", "151615.892500", "151616.502500", "151617.112500", "151617.722500", "151618.332500", "151618.942500", "151619.552500", "151620.162500", "151620.772500", "151621.382500", "151621.992500", "151622.602500", "151623.212500", "151623.822500", "151624.432500", "151625.042500", "151625.652500", "151626.262500", "151626.872500", "151627.482500", "151628.092500", "151628.702500", "151629.312500", "151629.922500", "151630.532500", "151631.142500", "151631.752500", "151632.362500", "151632.972500", "151633.582500", "151634.192500", "151634.802500", "151635.412500", "151636.022500", "151636.632500", "151637.242500", "151637.852500", "151638.462500", "151639.072500", "151639.682500", "151640.292500", "151640.902500", "151641.512500", "151642.122500", "151642.732500", "151643.342500", "151643.952500", "151644.562500", "151645.172500", "151645.782500", "151646.392500", "151647.002500", "151647.612500", "151648.222500", "151648.832500", "151649.442500", "151650.052500", "151650.662500", "151651.272500", "151651.882500", "151652.492500", "151653.102500", "151653.712500", "151654.322500", "151654.932500", "151655.542500", "151656.152500", "151656.762500", "151657.372500", "151657.982500", "151658.592500", "151659.202500", "151659.812500", "151700.422500", "151701.032500", "151701.642500", "151702.252500", "151702.862500", "151703.472500", "151704.082500", "151704.692500", "151705.302500", "151705.912500", "151706.522500", "151707.132500", "151707.742500", "151708.352500", "151708.962500", "151709.572500", "151710.182500", "151710.792500", "151711.402500", "151712.012500", "151712.622500", "151713.232500", "151713.842500", "151714.452500", "151715.062500", "151715.672500", "151716.282500", "151716.892500", "151717.502500", "151718.112500", "151718.722500", "151719.332500", "151719.942500", "151720.552500", "151721.162500", "151721.772500", "151722.382500", "151722.992500", "151723.602500", "151724.212500", "151724.822500", "151725.432500", "151726.042500", "151726.652500", "151727.262500", "151727.872500", "151728.482500", "151729.092500", "151729.702500", "151730.312500", "151730.922500", "151731.532500", "151732.142500", "151732.752500", "151733.362500", "151733.972500", "151734.582500", "151735.192500", "151735.802500", "151736.412500", "151737.022500", "151737.632500", "151738.242500", "151738.852500", "151739.462500", "151740.072500", "151740.682500", "151741.292500", "151741.902500", "151742.512500", "151743.122500", "151743.732500", "151744.342500", "151744.952500", "151745.562500", "151746.172500", "151746.782500", "151747.392500", "151748.002500", "151748.612500", "151749.222500", "151749.832500", "151750.442500", "151751.052500", "151751.662500", "151752.272500", "151752.882500", "151753.492500", "151754.102500", "151754.712500", "151755.322500", "151755.932500", "151756.542500", "151757.152500", "151757.762500", "151758.372500", "151758.982500", "151759.592500", "151800.202500", "151800.812500", "151801.422500", "151802.032500", "151802.642500", "151803.252500", "151803.862500", "151804.472500", "151805.082500", "151805.692500", "151806.302500", "151806.912500", "151807.522500", "151808.132500", "151808.742500", "151809.352500", "151809.962500", "151810.572500", "151811.182500", "151811.792500", "151812.402500", "151813.012500", "151813.622500", "151814.232500", "151814.842500", "151815.452500", "151816.062500", "151816.672500", "151817.282500", "151817.892500", "151818.502500", "151819.112500", "151819.722500", "151820.332500", "151820.942500", "151821.552500", "151822.162500", "151822.772500", "151823.382500", "151823.992500", "151824.602500", "151825.212500", "151825.822500", "151826.432500", "151827.042500", "151827.652500", "151828.262500", "151828.872500", "151829.482500", "151830.092500", "151830.702500", "151831.312500", "151831.922500", "151832.532500", "151833.142500", "151833.752500", "151834.362500", "151834.972500", "151835.582500", "151836.192500", "151836.802500", "151837.412500", "151838.022500", "151838.632500", "151839.242500", "151839.852500", "151840.462500", "151841.072500", "151841.682500", "151842.292500", "151842.902500", "151843.512500", "151844.122500", "151844.732500", "151845.342500", "151845.952500", "151846.562500", "151847.172500", "151847.782500", "151848.392500", "151849.002500", "151849.612500", "151850.222500", "151850.832500", "151851.442500", "151852.052500", "151852.662500", "151853.272500", "151853.882500", "151854.492500", "151855.102500", "151855.712500", "151856.322500", "151856.932500", "151857.542500", "151858.152500", "151858.762500", "151859.372500", "151859.982500", "151900.592500", "151901.202500", "151901.812500", "151902.422500", "151903.032500", "151903.642500", "151904.252500", "151904.862500", "151905.472500", "151906.082500", "151906.692500", "151907.302500", "151907.912500", "151908.522500", "151909.132500", "151909.742500", "151910.352500", "151910.962500", "151911.572500", "151912.182500", "151912.792500", "151913.402500", "151914.012500", "151914.622500", "151915.232500", "151915.842500", "151916.452500", "151917.062500", "151917.672500", "151918.282500", "151918.892500", "151919.502500", "151920.112500", "151920.722500", "151921.332500", "151921.942500", "151922.552500", "151923.162500", "151923.772500", "151924.382500", "151924.992500", "151925.602500", "151926.212500", "151926.822500", "151927.432500", "151928.042500", "151928.652500", "151929.262500", "151929.872500", "151930.482500", "151931.092500", "151931.702500", "151932.312500", "151932.922500", "151933.532500", "151934.142500", "151934.752500", "151935.362500", "151935.972500", "151936.582500", "151937.192500", "151937.802500", "151938.412500", "151939.022500", "151939.632500", "151940.242500", "151940.852500", "151941.462500", "151942.072500", "151942.682500", "151943.292500", "151943.902500", "151944.512500", "151945.122500", "151945.732500", "151946.342500", "151946.952500", "151947.562500", "151948.172500", "151948.782500", "151949.392500", "151950.002500", "151950.612500", "151951.222500", "151951.832500", "151952.442500", "151953.052500", "151953.662500", "151954.272500", "151954.882500", "151955.492500", "151956.102500", "151956.712500", "151957.322500", "151957.932500", "151958.542500", "151959.152500", "151959.762500", "152000.372500"], "ContentTime": ["151508.477000", "151508.486000", "151508.489000", "151508.491000", "151508.493000", "151508.496000", "151508.498000", "151508.500000", "151508.503000", "151508.505000", "151508.508000", "151508.510000", "151508.512000", "151508.515000", "151508.520000", "151508.522000", "151508.524000", "151508.527000", "151508.529000", "151508.532000", "151508.534000", "151508.537000", "151508.539000", "151508.541000", "151508.544000", "151508.546000", "151508.550000", "151508.552000", "151508.554000", "151528.469000", "151528.471000", "151528.476000", "151528.478000", "151528.481000", "151528.483000", "151528.485000", "151528.488000", "151528.490000", "151528.492000", "151528.503000", "151528.505000", "151528.508000", "151528.510000", "151528.512000", "151528.515000", "151528.517000", "151528.520000", "151528.522000", "151528.524000", "151528.527000", "151528.529000", "151528.532000", "151528.534000", "151528.536000", "151528.539000", "151528.541000", "151528.543000", "151528.546000", "151528.548000", "151528.551000", "151528.553000", "151528.556000", "151548.467000", "151548.470000", "151548.472000", "151548.475000", "151548.477000", "151548.479000", "151548.482000", "151548.484000", "151548.487000", "151548.489000", "151548.491000", "151548.494000", "151548.496000", "151548.498000", "151548.501000", "151548.503000", "151548.506000", "151548.508000", "151548.510000", "151548.513000", "151548.515000", "151548.518000", "151548.520000", "151548.522000", "151548.525000", "151548.527000", "151548.530000", "151548.532000", "151548.535000", "151548.537000", "151548.540000", "151548.542000", "151548.544000", "151608.467000", "151608.470000", "151608.472000", "151608.475000", "151608.477000", "151608.480000", "151608.482000", "151608.485000", "151608.487000", "151608.489000", "151608.492000", "151608.494000", "151608.497000", "151608.499000", "151608.501000", "151608.504000", "151608.506000", "151608.508000", "151608.511000", "151608.513000", "151608.516000", "151608.518000", "151608.520000", "151608.523000", "151608.525000", "151608.527000", "151608.530000", "151608.532000", "151608.534000", "151608.537000", "151608.539000", "151608.541000", "151628.467000", "151628.470000", "151628.473000", "151628.475000", "151628.477000", "151628.480000", "151628.482000", "151628.485000", "151628.487000", "151628.489000", "151628.492000", "151628.494000", "151628.497000", "151628.499000", "151628.501000", "151628.504000", "151628.506000", "151628.509000", "151628.511000", "151628.513000", "151628.516000", "151628.518000", "151628.521000", "151628.523000", "151628.532000", "151628.535000", "151628.537000", "151628.540000", "151628.542000", "151628.544000", "151628.547000", "151628.549000", "151628.551000", "151648.469000", "151648.471000", "151648.474000", "151648.476000", "151648.478000", "151648.481000", "151648.483000", "151648.485000", "151648.488000", "151648.490000", "151648.493000", "151648.495000", "151648.498000", "151648.500000", "151648.502000", "151648.505000", "151648.507000", "151648.510000", "151648.516000", "151648.518000", "151648.521000", "151648.523000", "151648.526000", "151648.528000", "151648.531000", "151648.533000", "151648.535000", "151648.538000", "151648.540000", "151648.543000", "151648.545000", "151648.547000", "151648.550000", "151708.468000", "151708.471000", "151708.473000", "151708.476000", "151708.478000", "151708.480000", "151708.483000", "151708.485000", "151708.488000", "151708.490000", "151708.492000", "151708.495000", "151708.497000", "151708.499000", "151708.502000", "151708.504000", "151708.507000", "151708.509000", "151708.511000", "151708.514000", "151708.516000", "151708.518000", "151708.521000", "151708.523000", "151708.526000", "151708.528000", "151708.531000", "151708.533000", "151708.535000", "151708.538000", "151708.540000", "151708.543000", "151708.545000", "151728.468000", "151728.471000", "151728.473000", "151728.476000", "151728.478000", "151728.480000", "151728.483000", "151728.486000", "151728.488000", "151728.491000", "151728.494000", "151728.496000", "151728.498000", "151728.501000", "151728.503000", "151728.506000", "151728.508000", "151728.511000", "151728.513000", "151728.515000", "151728.518000", "151728.520000", "151728.523000", "151728.525000", "151728.528000", "151728.530000", "151728.532000", "151728.535000", "151728.537000", "151728.540000", "151728.542000", "151728.544000", "151748.468000", "151748.471000", "151748.474000", "151748.476000", "151748.478000", "151748.481000", "151748.483000", "151748.486000", "151748.488000", "151748.491000", "151748.493000", "151748.495000", "151748.498000", "151748.500000", "151748.503000", "151748.505000", "151748.507000", "151748.510000", "151748.512000", "151748.514000", "151748.517000", "151748.519000", "151748.521000", "151748.524000", "151748.527000", "151748.529000", "151748.532000", "151748.534000", "151748.536000", "151748.539000", "151748.541000", "151748.543000", "151748.546000", "151808.467000", "151808.470000", "151808.472000", "151808.475000", "151808.477000", "151808.479000", "151808.482000", "151808.484000", "151808.487000", "151808.489000", "151808.491000", "151808.494000", "151808.496000", "151808.498000", "151808.501000", "151808.503000", "151808.505000", "151808.508000", "151808.511000", "151808.513000", "151808.515000", "151808.518000", "151808.520000", "151808.523000", "151808.525000", "151808.528000", "151808.530000", "151808.532000", "151808.535000", "151808.537000", "151808.540000", "151808.542000", "151808.544000", "151828.467000", "151828.470000", "151828.473000", "151828.475000", "151828.477000", "151828.480000", "151828.482000", "151828.485000", "151828.487000", "151828.490000", "151828.492000", "151828.494000", "151828.497000", "151828.499000", "151828.501000", "151828.504000", "151828.506000", "151828.509000", "151828.511000", "151828.514000", "151828.516000", "151828.525000", "151828.528000", "151828.530000", "151828.533000", "151828.535000", "151828.537000", "151828.540000", "151828.542000", "151828.544000", "151828.547000", "151828.549000", "151828.551000", "151848.467000", "151848.470000", "151848.472000", "151848.475000", "151848.477000", "151848.480000", "151848.482000", "151848.484000", "151848.487000", "151848.489000", "151848.491000", "151848.494000", "151848.496000", "151848.499000", "151848.501000", "151848.503000", "151848.506000", "151848.508000", "151848.510000", "151848.513000", "151848.515000", "151848.518000", "151848.524000", "151848.526000", "151848.529000", "151848.531000", "151848.534000", "151848.536000", "151848.539000", "151848.541000", "151848.543000", "151848.546000", "151848.548000", "151908.468000", "151908.471000", "151908.473000", "151908.476000", "151908.478000", "151908.480000", "151908.483000", "151908.507000", "151908.510000", "151908.512000", "151908.515000", "151908.517000", "151908.519000", "151908.522000", "151908.524000", "151908.526000", "151908.529000", "151908.531000", "151908.534000", "151908.536000", "151908.539000", "151908.541000", "151908.543000", "151908.546000", "151908.548000", "151908.551000", "151908.553000", "151908.556000", "151908.558000", "151908.560000", "151908.563000", "151908.565000", "151928.468000", "151928.471000", "151928.474000", "151928.476000", "151928.478000", "151928.481000", "151928.483000", "151928.486000", "151928.488000", "151928.490000", "151928.493000", "151928.495000", "151928.497000", "151928.500000", "151928.502000", "151928.505000", "151928.507000", "151928.510000", "151928.513000", "151928.515000", "151928.517000", "151928.520000", "151928.522000", "151928.525000", "151928.527000", "151928.529000", "151928.532000", "151928.534000", "151928.544000", "151928.546000", "151928.549000", "151928.551000", "151928.553000", "151948.468000", "151948.471000", "151948.473000", "151948.476000", "151948.478000", "151948.481000", "151948.483000", "151948.485000", "151948.488000", "151948.490000", "151948.493000", "151948.495000", "151948.497000", "151948.500000", "151948.502000", "151948.504000", "151948.507000", "151948.512000", "151948.515000", "151948.517000", "151948.520000", "151948.522000", "151948.525000", "151948.527000", "151948.530000", "151948.532000", "151948.535000", "151948.537000", "151948.540000", "151948.542000", "151948.545000", "151948.547000", "151948.549000", "152001.583000", "152001.586000", "152001.590000", "152001.593000", "152001.596000", "152001.598000", "152001.601000", "152001.603000", "152001.606000", "152001.608000", "152001.611000", "152001.613000", "152001.616000", "152001.619000", "152001.621000", "152001.623000", "152001.626000", "152001.629000", "152001.632000", "152001.634000", "152001.637000", "152001.640000"], "InstanceCreationTime": ["151508.477000", "151508.486000", "151508.489000", "151508.491000", "151508.493000", "151508.496000", "151508.498000", "151508.500000", "151508.503000", "151508.505000", "151508.508000", "151508.510000", "151508.512000", "151508.515000", "151508.520000", "151508.522000", "151508.524000", "151508.527000", "151508.529000", "151508.532000", "151508.534000", "151508.537000", "151508.539000", "151508.541000", "151508.544000", "151508.546000", "151508.550000", "151508.552000", "151508.554000", "151528.469000", "151528.471000", "151528.476000", "151528.478000", "151528.481000", "151528.483000", "151528.485000", "151528.488000", "151528.490000", "151528.492000", "151528.503000", "151528.505000", "151528.508000", "151528.510000", "151528.512000", "151528.515000", "151528.517000", "151528.520000", "151528.522000", "151528.524000", "151528.527000", "151528.529000", "151528.532000", "151528.534000", "151528.536000", "151528.539000", "151528.541000", "151528.543000", "151528.546000", "151528.548000", "151528.551000", "151528.553000", "151528.556000", "151548.467000", "151548.470000", "151548.472000", "151548.475000", "151548.477000", "151548.479000", "151548.482000", "151548.484000", "151548.487000", "151548.489000", "151548.491000", "151548.494000", "151548.496000", "151548.498000", "151548.501000", "151548.503000", "151548.506000", "151548.508000", "151548.510000", "151548.513000", "151548.515000", "151548.518000", "151548.520000", "151548.522000", "151548.525000", "151548.527000", "151548.530000", "151548.532000", "151548.535000", "151548.537000", "151548.540000", "151548.542000", "151548.544000", "151608.467000", "151608.470000", "151608.472000", "151608.475000", "151608.477000", "151608.480000", "151608.482000", "151608.485000", "151608.487000", "151608.489000", "151608.492000", "151608.494000", "151608.497000", "151608.499000", "151608.501000", "151608.504000", "151608.506000", "151608.508000", "151608.511000", "151608.513000", "151608.516000", "151608.518000", "151608.520000", "151608.523000", "151608.525000", "151608.527000", "151608.530000", "151608.532000", "151608.534000", "151608.537000", "151608.539000", "151608.541000", "151628.467000", "151628.470000", "151628.473000", "151628.475000", "151628.477000", "151628.480000", "151628.482000", "151628.485000", "151628.487000", "151628.489000", "151628.492000", "151628.494000", "151628.497000", "151628.499000", "151628.501000", "151628.504000", "151628.506000", "151628.509000", "151628.511000", "151628.513000", "151628.516000", "151628.518000", "151628.521000", "151628.523000", "151628.532000", "151628.535000", "151628.537000", "151628.540000", "151628.542000", "151628.544000", "151628.547000", "151628.549000", "151628.551000", "151648.469000", "151648.471000", "151648.474000", "151648.476000", "151648.478000", "151648.481000", "151648.483000", "151648.485000", "151648.488000", "151648.490000", "151648.493000", "151648.495000", "151648.498000", "151648.500000", "151648.502000", "151648.505000", "151648.507000", "151648.510000", "151648.516000", "151648.518000", "151648.521000", "151648.523000", "151648.526000", "151648.528000", "151648.531000", "151648.533000", "151648.535000", "151648.538000", "151648.540000", "151648.543000", "151648.545000", "151648.547000", "151648.550000", "151708.468000", "151708.471000", "151708.473000", "151708.476000", "151708.478000", "151708.480000", "151708.483000", "151708.485000", "151708.488000", "151708.490000", "151708.492000", "151708.495000", "151708.497000", "151708.499000", "151708.502000", "151708.504000", "151708.507000", "151708.509000", "151708.511000", "151708.514000", "151708.516000", "151708.518000", "151708.521000", "151708.523000", "151708.526000", "151708.528000", "151708.531000", "151708.533000", "151708.535000", "151708.538000", "151708.540000", "151708.543000", "151708.545000", "151728.468000", "151728.471000", "151728.473000", "151728.476000", "151728.478000", "151728.480000", "151728.483000", "151728.486000", "151728.488000", "151728.491000", "151728.494000", "151728.496000", "151728.498000", "151728.501000", "151728.503000", "151728.506000", "151728.508000", "151728.511000", "151728.513000", "151728.515000", "151728.518000", "151728.520000", "151728.523000", "151728.525000", "151728.528000", "151728.530000", "151728.532000", "151728.535000", "151728.537000", "151728.540000", "151728.542000", "151728.544000", "151748.468000", "151748.471000", "151748.474000", "151748.476000", "151748.478000", "151748.481000", "151748.483000", "151748.486000", "151748.488000", "151748.491000", "151748.493000", "151748.495000", "151748.498000", "151748.500000", "151748.503000", "151748.505000", "151748.507000", "151748.510000", "151748.512000", "151748.514000", "151748.517000", "151748.519000", "151748.521000", "151748.524000", "151748.527000", "151748.529000", "151748.532000", "151748.534000", "151748.536000", "151748.539000", "151748.541000", "151748.543000", "151748.546000", "151808.467000", "151808.470000", "151808.472000", "151808.475000", "151808.477000", "151808.479000", "151808.482000", "151808.484000", "151808.487000", "151808.489000", "151808.491000", "151808.494000", "151808.496000", "151808.498000", "151808.501000", "151808.503000", "151808.505000", "151808.508000", "151808.511000", "151808.513000", "151808.515000", "151808.518000", "151808.520000", "151808.523000", "151808.525000", "151808.528000", "151808.530000", "151808.532000", "151808.535000", "151808.537000", "151808.540000", "151808.542000", "151808.544000", "151828.467000", "151828.470000", "151828.473000", "151828.475000", "151828.477000", "151828.480000