{"AcquisitionMatrixPE": 64, "AcquisitionNumber": 1, "AcquisitionTime": "12:11:14.707500", "BandwidthPerPixelPhaseEncode": 28.935, "BaseResolution": 64, "BodyPartExamined": "BRAIN", "CoilString": "HC2_4_6_7;SC", "ConsistencyInfo": "N4_VE11E_LATEST_20181129", "ConversionSoftware": "dcm2niix", "ConversionSoftwareVersion": "v1.0.20190902", "DerivedVendorReportedEchoSpacing": 0.000540003, "DeviceSerialNumber": "166182", "DwellTime": 3.4e-06, "EchoTime": 0.032, "EchoTrainLength": 64, "EffectiveEchoSpacing": 0.000540003, "FlipAngle": 40, "ImageOrientationPatientDICOM": [0.999128, -0.0386056, -0.0159021, 0.0369856, 0.995077, -0.0919473], "ImageType": ["ORIGINAL", "PRIMARY", "M", "ND", "NORM", "MOSAIC"], "ImagingFrequency": 123.255, "InPlanePhaseEncodingDirectionDICOM": "COL", "InstitutionAddress": "PEARSE_STREET_._City_District_IE_D2", "InstitutionName": "TCIN", "InstitutionalDepartmentName": "MRI", "MRAcquisitionType": "2D", "MagneticFieldStrength": 3, "Manufacturer": "Siemens", "ManufacturersModelName": "Prisma", "Modality": "MR", "MultibandAccelerationFactor": 4, "PartialFourier": 1, "PatientPosition": "HFS", "PercentPhaseFOV": 100, "PhaseEncodingDirection": "j-", "PhaseEncodingSteps": 64, "PhaseResolution": 1, "PixelBandwidth": 2300, "ProcedureStepDescription": "Rhodri_Head_BOLD", "ProtocolName": "cmrr_mbep2d_Pictures_AP_RDS", "PulseSequenceDetails": "%SiemensSeq%_ep2d_bold", "ReceiveCoilActiveElements": "HC2,4,6,7;SC", "ReceiveCoilName": "SpecialPurpose_4", "ReconMatrixPE": 64, "RefLinesPE": 12, "RepetitionTime": 0.61, "SAR": 0.197406, "ScanOptions": "FS", "ScanningSequence": "EP", "SequenceName": "_epfid2d1_64", "SequenceVariant": "SK", "SeriesDescription": "cmrr_mbep2d_Pictures_AP_RDS", "SeriesNumber": 11, "ShimSetting": [-3651, -7426, 3981, 1141, -258, 503, -162, -88], "SliceThickness": 3, "SliceTiming": [0.26, 0, 0.3275, 0.065, 0.3925, 0.13, 0.4575, 0.195, 0.5225, 0.26, 0, 0.3275, 0.065, 0.3925, 0.13, 0.4575, 0.195, 0.5225, 0.26, 0, 0.3275, 0.065, 0.3925, 0.13, 0.4575, 0.195, 0.5225, 0.26, 0, 0.3275, 0.065, 0.3925, 0.13, 0.4575, 0.195, 0.5225], "SoftwareVersions": "syngo_MR_E11", "SpacingBetweenSlices": 3.3, "StationName": "AWP166182", "TaskName": "pictures", "TotalReadoutTime": 0.0340202, "TxRefAmp": 219.88, "dcmmeta_affine": [[-2.9973840713500977, 0.11095676571130753, -0.063932403922081, 94.80159759521484], [0.11581666022539139, 2.9852302074432373, -0.30122068524360657, -103.6877670288086], [-0.047706205397844315, 0.27584195137023926, 3.2856016159057617, -81.60212707519531], [0.0, 0.0, 0.0, 1.0]], "dcmmeta_reorient_transform": [[0.0, -1.0, 0.0, 63.0], [1.0, 0.0, 0.0, 0.0], [0.0, 0.0, 1.0, 0.0], [0.0, 0.0, 0.0, 1.0]], "dcmmeta_shape": [64, 64, 36, 510], "dcmmeta_slice_dim": 2, "dcmmeta_version": 0.6, "global": {"const": {"AcquisitionMatrix": [64, 0, 0, 64], "AngioFlag": "N", "BitsAllocated": 16, "BitsStored": 12, "BodyPartExamined": "BRAIN", "Columns": 384, "EchoNumbers": 1, "EchoTime": 32.0, "EchoTrainLength": 64, "FlipAngle": 40.0, "HighBit": 11, "ImageOrientationPatient": [0.99912798757033, -0.038605552543, -0.015902067995, 0.03698558748623, 0.99507675926656, -0.0919473190793], "ImagePositionPatient": [-599.12638685533, -543.4879199861, -12.456374505183], "ImageType": ["ORIGINAL", "PRIMARY", "M", "ND", "NORM", "MOSAIC"], "ImagedNucleus": "1H", "ImagingFrequency": 123.254902, "InPlanePhaseEncodingDirection": "COL", "MRAcquisitionType": "2D", "MagneticFieldStrength": 3.0, "Manufacturer": "SIEMENS", "ManufacturerModelName": "Prisma", "Modality": "MR", "NumberOfAverages": 1.0, "NumberOfPhaseEncodingSteps": 64, "PercentPhaseFieldOfView": 100.0, "PercentSampling": 100.0, "PerformedProcedureStepStartTime": "113505.376000", "PhotometricInterpretation": "MONOCHROME2", "PixelBandwidth": 2300.0, "PixelRepresentation": 0, "PixelSpacing": [3.0, 3.0], "ProtocolName": "cmrr_mbep2d_Pictures_AP_RDS", "RepetitionTime": 610.0, "Rows": 384, "SAR": 0.19740588655512, "SamplesPerPixel": 1, "ScanOptions": "FS", "ScanningSequence": "EP", "SequenceName": "*epfid2d1_64", "SequenceVariant": "SK", "SeriesDescription": "cmrr_mbep2d_Pictures_AP_RDS", "SeriesNumber": 11, "SeriesTime": "121143.284000", "SliceLocation": -73.618204059635, "SliceThickness": 3.0, "SmallestImagePixelValue": 0, "SoftwareVersions": "syngo MR E11", "SpacingBetweenSlices": 3.2999999667318, "SpecificCharacterSet": "ISO_IR 100", "StudyID": "1", "StudyTime": "113505.193000", "TransmitCoilName": "Body", "VariableFlipAngleFlag": "N", "WindowCenterWidthExplanation": "Algo1"}, "slices": {}}, "time": {"samples": {"AcquisitionNumber": [1, 2, 3, 4, 5, 6, 7, 8, 9, 10, 11, 12, 13, 14, 15, 16, 17, 18, 19, 20, 21, 22, 23, 24, 25, 26, 27, 28, 29, 30, 31, 32, 33, 34, 35, 36, 37, 38, 39, 40, 41, 42, 43, 44, 45, 46, 47, 48, 49, 50, 51, 52, 53, 54, 55, 56, 57, 58, 59, 60, 61, 62, 63, 64, 65, 66, 67, 68, 69, 70, 71, 72, 73, 74, 75, 76, 77, 78, 79, 80, 81, 82, 83, 84, 85, 86, 87, 88, 89, 90, 91, 92, 93, 94, 95, 96, 97, 98, 99, 100, 101, 102, 103, 104, 105, 106, 107, 108, 109, 110, 111, 112, 113, 114, 115, 116, 117, 118, 119, 120, 121, 122, 123, 124, 125, 126, 127, 128, 129, 130, 131, 132, 133, 134, 135, 136, 137, 138, 139, 140, 141, 142, 143, 144, 145, 146, 147, 148, 149, 150, 151, 152, 153, 154, 155, 156, 157, 158, 159, 160, 161, 162, 163, 164, 165, 166, 167, 168, 169, 170, 171, 172, 173, 174, 175, 176, 177, 178, 179, 180, 181, 182, 183, 184, 185, 186, 187, 188, 189, 190, 191, 192, 193, 194, 195, 196, 197, 198, 199, 200, 201, 202, 203, 204, 205, 206, 207, 208, 209, 210, 211, 212, 213, 214, 215, 216, 217, 218, 219, 220, 221, 222, 223, 224, 225, 226, 227, 228, 229, 230, 231, 232, 233, 234, 235, 236, 237, 238, 239, 240, 241, 242, 243, 244, 245, 246, 247, 248, 249, 250, 251, 252, 253, 254, 255, 256, 257, 258, 259, 260, 261, 262, 263, 264, 265, 266, 267, 268, 269, 270, 271, 272, 273, 274, 275, 276, 277, 278, 279, 280, 281, 282, 283, 284, 285, 286, 287, 288, 289, 290, 291, 292, 293, 294, 295, 296, 297, 298, 299, 300, 301, 302, 303, 304, 305, 306, 307, 308, 309, 310, 311, 312, 313, 314, 315, 316, 317, 318, 319, 320, 321, 322, 323, 324, 325, 326, 327, 328, 329, 330, 331, 332, 333, 334, 335, 336, 337, 338, 339, 340, 341, 342, 343, 344, 345, 346, 347, 348, 349, 350, 351, 352, 353, 354, 355, 356, 357, 358, 359, 360, 361, 362, 363, 364, 365, 366, 367, 368, 369, 370, 371, 372, 373, 374, 375, 376, 377, 378, 379, 380, 381, 382, 383, 384, 385, 386, 387, 388, 389, 390, 391, 392, 393, 394, 395, 396, 397, 398, 399, 400, 401, 402, 403, 404, 405, 406, 407, 408, 409, 410, 411, 412, 413, 414, 415, 416, 417, 418, 419, 420, 421, 422, 423, 424, 425, 426, 427, 428, 429, 430, 431, 432, 433, 434, 435, 436, 437, 438, 439, 440, 441, 442, 443, 444, 445, 446, 447, 448, 449, 450, 451, 452, 453, 454, 455, 456, 457, 458, 459, 460, 461, 462, 463, 464, 465, 466, 467, 468, 469, 470, 471, 472, 473, 474, 475, 476, 477, 478, 479, 480, 481, 482, 483, 484, 485, 486, 487, 488, 489, 490, 491, 492, 493, 494, 495, 496, 497, 498, 499, 500, 501, 502, 503, 504, 505, 506, 507, 508, 509, 510], "AcquisitionTime": ["121114.707500", "121115.317500", "121115.927500", "121116.537500", "121117.147500", "121117.757500", "121118.367500", "121118.977500", "121119.587500", "121120.197500", "121120.807500", "121121.417500", "121122.027500", "121122.637500", "121123.247500", "121123.857500", "121124.467500", "121125.077500", "121125.687500", "121126.297500", "121126.907500", "121127.517500", "121128.127500", "121128.737500", "121129.347500", "121129.957500", "121130.567500", "121131.177500", "121131.787500", "121132.397500", "121133.007500", "121133.617500", "121134.227500", "121134.837500", "121135.447500", "121136.057500", "121136.667500", "121137.277500", "121137.887500", "121138.497500", "121139.107500", "121139.717500", "121140.327500", "121140.937500", "121141.547500", "121142.157500", "121142.767500", "121143.377500", "121143.987500", "121144.597500", "121145.207500", "121145.817500", "121146.427500", "121147.037500", "121147.647500", "121148.257500", "121148.867500", "121149.477500", "121150.087500", "121150.697500", "121151.307500", "121151.917500", "121152.527500", "121153.137500", "121153.747500", "121154.357500", "121154.967500", "121155.577500", "121156.187500", "121156.797500", "121157.407500", "121158.017500", "121158.627500", "121159.237500", "121159.847500", "121200.457500", "121201.067500", "121201.677500", "121202.287500", "121202.897500", "121203.507500", "121204.117500", "121204.727500", "121205.337500", "121205.947500", "121206.557500", "121207.167500", "121207.777500", "121208.387500", "121208.997500", "121209.607500", "121210.217500", "121210.827500", "121211.437500", "121212.047500", "121212.657500", "121213.267500", "121213.877500", "121214.487500", "121215.097500", "121215.707500", "121216.317500", "121216.927500", "121217.537500", "121218.147500", "121218.757500", "121219.367500", "121219.977500", "121220.587500", "121221.197500", "121221.807500", "121222.417500", "121223.027500", "121223.637500", "121224.247500", "121224.857500", "121225.467500", "121226.077500", "121226.687500", "121227.297500", "121227.907500", "121228.517500", "121229.127500", "121229.737500", "121230.347500", "121230.957500", "121231.567500", "121232.177500", "121232.787500", "121233.397500", "121234.007500", "121234.617500", "121235.227500", "121235.837500", "121236.447500", "121237.057500", "121237.667500", "121238.277500", "121238.887500", "121239.497500", "121240.107500", "121240.717500", "121241.327500", "121241.937500", "121242.547500", "121243.157500", "121243.767500", "121244.377500", "121244.987500", "121245.597500", "121246.207500", "121246.817500", "121247.427500", "121248.037500", "121248.647500", "121249.257500", "121249.867500", "121250.477500", "121251.087500", "121251.697500", "121252.307500", "121252.917500", "121253.527500", "121254.137500", "121254.747500", "121255.357500", "121255.967500", "121256.577500", "121257.187500", "121257.797500", "121258.407500", "121259.017500", "121259.627500", "121300.237500", "121300.847500", "121301.457500", "121302.067500", "121302.677500", "121303.287500", "121303.897500", "121304.507500", "121305.117500", "121305.727500", "121306.337500", "121306.947500", "121307.557500", "121308.167500", "121308.777500", "121309.387500", "121309.997500", "121310.607500", "121311.217500", "121311.827500", "121312.437500", "121313.047500", "121313.657500", "121314.267500", "121314.877500", "121315.487500", "121316.097500", "121316.707500", "121317.317500", "121317.927500", "121318.537500", "121319.147500", "121319.757500", "121320.367500", "121320.977500", "121321.587500", "121322.197500", "121322.807500", "121323.417500", "121324.027500", "121324.637500", "121325.247500", "121325.857500", "121326.467500", "121327.077500", "121327.687500", "121328.297500", "121328.907500", "121329.517500", "121330.127500", "121330.737500", "121331.347500", "121331.957500", "121332.567500", "121333.177500", "121333.787500", "121334.397500", "121335.007500", "121335.617500", "121336.227500", "121336.837500", "121337.447500", "121338.057500", "121338.667500", "121339.277500", "121339.887500", "121340.497500", "121341.107500", "121341.717500", "121342.327500", "121342.937500", "121343.547500", "121344.157500", "121344.767500", "121345.377500", "121345.987500", "121346.597500", "121347.207500", "121347.817500", "121348.427500", "121349.037500", "121349.647500", "121350.257500", "121350.867500", "121351.477500", "121352.087500", "121352.697500", "121353.307500", "121353.917500", "121354.527500", "121355.137500", "121355.747500", "121356.357500", "121356.967500", "121357.577500", "121358.187500", "121358.797500", "121359.407500", "121400.017500", "121400.627500", "121401.237500", "121401.847500", "121402.457500", "121403.067500", "121403.677500", "121404.287500", "121404.897500", "121405.507500", "121406.117500", "121406.727500", "121407.337500", "121407.947500", "121408.557500", "121409.167500", "121409.777500", "121410.387500", "121410.997500", "121411.607500", "121412.217500", "121412.827500", "121413.437500", "121414.047500", "121414.657500", "121415.267500", "121415.877500", "121416.487500", "121417.097500", "121417.707500", "121418.317500", "121418.927500", "121419.537500", "121420.147500", "121420.757500", "121421.367500", "121421.977500", "121422.587500", "121423.197500", "121423.807500", "121424.417500", "121425.027500", "121425.637500", "121426.247500", "121426.857500", "121427.467500", "121428.077500", "121428.687500", "121429.297500", "121429.907500", "121430.517500", "121431.127500", "121431.737500", "121432.347500", "121432.957500", "121433.567500", "121434.177500", "121434.787500", "121435.397500", "121436.007500", "121436.617500", "121437.227500", "121437.837500", "121438.447500", "121439.057500", "121439.667500", "121440.277500", "121440.887500", "121441.497500", "121442.107500", "121442.717500", "121443.327500", "121443.937500", "121444.547500", "121445.157500", "121445.767500", "121446.377500", "121446.987500", "121447.597500", "121448.207500", "121448.817500", "121449.427500", "121450.037500", "121450.647500", "121451.257500", "121451.867500", "121452.477500", "121453.087500", "121453.697500", "121454.307500", "121454.917500", "121455.527500", "121456.137500", "121456.747500", "121457.357500", "121457.967500", "121458.577500", "121459.187500", "121459.797500", "121500.407500", "121501.017500", "121501.627500", "121502.237500", "121502.847500", "121503.457500", "121504.067500", "121504.677500", "121505.287500", "121505.897500", "121506.507500", "121507.117500", "121507.727500", "121508.337500", "121508.947500", "121509.557500", "121510.167500", "121510.777500", "121511.387500", "121511.997500", "121512.607500", "121513.217500", "121513.827500", "121514.437500", "121515.047500", "121515.657500", "121516.267500", "121516.877500", "121517.487500", "121518.097500", "121518.707500", "121519.317500", "121519.927500", "121520.537500", "121521.147500", "121521.757500", "121522.367500", "121522.977500", "121523.587500", "121524.197500", "121524.807500", "121525.417500", "121526.027500", "121526.637500", "121527.247500", "121527.857500", "121528.467500", "121529.077500", "121529.687500", "121530.297500", "121530.907500", "121531.517500", "121532.127500", "121532.737500", "121533.347500", "121533.957500", "121534.567500", "121535.177500", "121535.787500", "121536.397500", "121537.007500", "121537.617500", "121538.227500", "121538.837500", "121539.447500", "121540.057500", "121540.667500", "121541.277500", "121541.887500", "121542.497500", "121543.107500", "121543.717500", "121544.327500", "121544.937500", "121545.547500", "121546.157500", "121546.767500", "121547.377500", "121547.987500", "121548.597500", "121549.207500", "121549.817500", "121550.427500", "121551.037500", "121551.647500", "121552.257500", "121552.867500", "121553.477500", "121554.087500", "121554.697500", "121555.307500", "121555.917500", "121556.527500", "121557.137500", "121557.747500", "121558.357500", "121558.967500", "121559.577500", "121600.187500", "121600.797500", "121601.407500", "121602.017500", "121602.627500", "121603.237500", "121603.847500", "121604.457500", "121605.067500", "121605.677500", "121606.287500", "121606.897500", "121607.507500", "121608.117500", "121608.727500", "121609.337500", "121609.947500", "121610.557500", "121611.167500", "121611.777500", "121612.387500", "121612.997500", "121613.607500", "121614.217500", "121614.827500", "121615.437500", "121616.047500", "121616.657500", "121617.267500", "121617.877500", "121618.487500", "121619.097500", "121619.707500", "121620.317500", "121620.927500", "121621.537500", "121622.147500", "121622.757500", "121623.367500", "121623.977500", "121624.587500", "121625.197500"], "ContentTime": ["121143.287000", "121143.290000", "121143.292000", "121143.295000", "121143.297000", "121143.300000", "121143.302000", "121143.305000", "121143.307000", "121143.309000", "121143.312000", "121143.314000", "121143.317000", "121143.319000", "121143.322000", "121143.332000", "121143.334000", "121143.337000", "121143.377000", "121143.380000", "121143.382000", "121143.385000", "121143.387000", "121143.390000", "121143.392000", "121143.395000", "121143.413000", "121143.415000", "121143.418000", "121143.420000", "121143.442000", "121143.444000", "121143.446000", "121143.449000", "121143.454000", "121143.456000", "121143.459000", "121143.461000", "121143.466000", "121143.468000", "121143.470000", "121143.473000", "121143.475000", "121143.478000", "121143.480000", "121143.483000", "121203.274000", "121203.276000", "121203.279000", "121203.281000", "121203.284000", "121203.286000", "121203.288000", "121203.291000", "121203.293000", "121203.296000", "121203.298000", "121203.301000", "121203.303000", "121203.305000", "121203.308000", "121203.310000", "121203.313000", "121203.315000", "121203.317000", "121203.320000", "121203.322000", "121203.324000", "121203.327000", "121203.329000", "121203.332000", "121203.334000", "121203.336000", "121203.339000", "121203.341000", "121203.344000", "121203.346000", "121203.349000", "121203.352000", "121223.273000", "121223.276000", "121223.278000", "121223.281000", "121223.283000", "121223.285000", "121223.288000", "121223.290000", "121223.293000", "121223.295000", "121223.297000", "121223.300000", "121223.302000", "121223.305000", "121223.307000", "121223.310000", "121223.312000", "121223.314000", "121223.317000", "121223.319000", "121223.322000", "121223.324000", "121223.327000", "121223.332000", "121223.334000", "121223.337000", "121223.339000", "121223.346000", "121223.348000", "121223.351000", "121223.353000", "121223.356000", "121223.370000", "121243.273000", "121243.276000", "121243.278000", "121243.281000", "121243.291000", "121243.294000", "121243.296000", "121243.298000", "121243.301000", "121243.312000", "121243.315000", "121243.317000", "121243.320000", "121243.322000", "121243.324000", "121243.327000", "121243.329000", "121243.332000", "121243.334000", "121243.336000", "121243.339000", "121243.341000", "121243.344000", "121243.346000", "121243.349000", "121243.351000", "121243.353000", "121243.356000", "121243.358000", "121243.361000", "121243.363000", "121243.365000", "121243.368000", "121303.274000", "121303.277000", "121303.280000", "121303.282000", "121303.285000", "121303.287000", "121303.290000", "121303.292000", "121303.295000", "121303.297000", "121303.300000", "121303.302000", "121303.305000", "121303.307000", "121303.310000", "121303.312000", "121303.314000", "121303.317000", "121303.319000", "121303.322000", "121303.324000", "121303.326000", "121303.329000", "121303.331000", "121303.334000", "121303.336000", "121303.338000", "121303.341000", "121303.343000", "121303.346000", "121303.348000", "121303.351000", "121323.274000", "121323.277000", "121323.280000", "121323.282000", "121323.284000", "121323.287000", "121323.289000", "121323.292000", "121323.294000", "121323.297000", "121323.299000", "121323.301000", "121323.304000", "121323.306000", "121323.309000", "121323.311000", "121323.314000", "121323.317000", "121323.319000", "121323.322000", "121323.324000", "121323.327000", "121323.329000", "121323.331000", "121323.334000", "121323.336000", "121323.339000", "121323.341000", "121323.343000", "121323.346000", "121323.348000", "121323.351000", "121323.353000", "121343.274000", "121343.277000", "121343.279000", "121343.282000", "121343.284000", "121343.293000", "121343.295000", "121343.298000", "121343.300000", "121343.303000", "121343.306000", "121343.308000", "121343.310000", "121343.313000", "121343.315000", "121343.318000", "121343.320000", "121343.323000", "121343.325000", "121343.327000", "121343.330000", "121343.333000", "121343.335000", "121343.338000", "121343.340000", "121343.342000", "121343.345000", "121343.347000", "121343.350000", "121343.352000", "121343.354000", "121343.357000", "121343.359000", "121403.273000", "121403.276000", "121403.279000", "121403.281000", "121403.283000", "121403.286000", "121403.288000", "121403.291000", "121403.293000", "121403.295000", "121403.298000", "121403.300000", "121403.303000", "121403.305000", "121403.308000", "121403.310000", "121403.312000", "121403.315000", "121403.317000", "121403.320000", "121403.322000", "121403.325000", "121403.327000", "121403.330000", "121403.332000", "121403.334000", "121403.337000", "121403.339000", "121403.342000", "121403.344000", "121403.347000", "121403.363000", "121403.365000", "121423.273000", "121423.276000", "121423.278000", "121423.281000", "121423.283000", "121423.285000", "121423.288000", "121423.291000", "121423.293000", "121423.295000", "121423.298000", "121423.300000", "121423.303000", "121423.305000", "121423.310000", "121423.313000", "121423.315000", "121423.318000", "121423.320000", "121423.323000", "121423.325000", "121423.328000", "121423.330000", "121423.332000", "121423.335000", "121423.337000", "121423.340000", "121423.342000", "121423.344000", "121423.347000", "121423.349000", "121423.352000", "121423.354000", "121443.273000", "121443.276000", "121443.278000", "121443.281000", "121443.283000", "121443.286000", "121443.288000", "121443.291000", "121443.293000", "121443.295000", "121443.298000", "121443.300000", "121443.303000", "121443.305000", "121443.308000", "121443.310000", "121443.312000", "121443.315000", "121443.317000", "121443.320000", "121443.322000", "121443.324000", "121443.327000", "121443.330000", "121443.333000", "121443.335000", "121443.337000", "121443.340000", "121443.342000", "121443.345000", "121443.347000", "121443.350000", "121503.273000", "121503.276000", "121503.278000", "121503.281000", "121503.283000", "121503.286000", "121503.288000", "121503.291000", "121503.293000", "121503.296000", "121503.299000", "121503.301000", "121503.304000", "121503.306000", "121503.309000", "121503.311000", "121503.314000", "121503.316000", "121503.318000", "121503.321000", "121503.323000", "121503.326000", "121503.328000", "121503.330000", "121503.333000", "121503.335000", "121503.338000", "121503.340000", "121503.343000", "121503.345000", "121503.347000", "121503.350000", "121503.353000", "121523.274000", "121523.277000", "121523.279000", "121523.282000", "121523.284000", "121523.287000", "121523.289000", "121523.291000", "121523.294000", "121523.296000", "121523.299000", "121523.301000", "121523.304000", "121523.306000", "121523.308000", "121523.311000", "121523.313000", "121523.315000", "121523.318000", "121523.320000", "121523.323000", "121523.326000", "121523.328000", "121523.330000", "121523.333000", "121523.335000", "121523.338000", "121523.340000", "121523.342000", "121523.345000", "121523.347000", "121523.350000", "121523.352000", "121543.274000", "121543.277000", "121543.280000", "121543.282000", "121543.284000", "121543.287000", "121543.289000", "121543.292000", "121543.294000", "121543.297000", "121543.299000", "121543.301000", "121543.304000", "121543.306000", "121543.309000", "121543.311000", "121543.313000", "121543.316000", "121543.318000", "121543.321000", "121543.323000", "121543.325000", "121543.328000", "121543.330000", "121543.333000", "121543.335000", "121543.337000", "121543.340000", "121543.342000", "121543.344000", "121543.347000", "121543.349000", "121543.352000", "121603.274000", "121603.277000", "121603.280000", "121603.282000", "121603.285000", "121603.287000", "121603.290000", "121603.292000", "121603.294000", "121603.297000", "121603.299000", "121603.302000", "121603.304000", "121603.307000", "121603.309000", "121603.312000", "121603.314000", "121603.316000", "121603.319000", "121603.321000", "121603.324000", "121603.326000", "121603.329000", "121603.332000", "121603.334000", "121603.336000", "121603.339000", "121603.341000", "121603.344000", "121603.346000", "121603.348000", "121603.351000", "121603.353000", "121623.273000", "121623.276000", "121623.279000", "121623.281000", "121623.283000", "121623.286000", "121623.288000", "121623.291000", "121623.293000", "121623.295000", "121623.298000", "121623.300000", "121623.303000", "121623.305000", "121623.308000", "121623.310000", "121623.312000", "121623.315000", "121623.317000", "121623.320000", "121623.322000", "121623.324000", "121623.327000", "121623.329000", "121623.332000", "121623.334000", "121623.337000", "121623.339000", "121623.341000", "121623.344000", "121623.346000", "121623.349000", "121625.771000", "121625.774000", "121625.777000", "121625.779000", "121625.782000"], "InstanceCreationTime": ["121143.287000", "121143.290000", "121143.292000", "121143.295000", "121143.297000", "121143.300000", "121143.302000", "121143.305000", "121143.307000", "121143.309000", "121143.312000", "121143.314000", "121143.317000", "121143.319000", "121143.322000", "121143.332000", "121143.334000", "121143.337000", "121143.377000", "121143.380000", "121143.382000", "121143.385000", "121143.387000", "121143.390000", "121143.392000", "121143.395000", "121143.413000", "121143.415000", "121143.418000", "121143.420000", "121143.442000", "121143.444000", "121143.446000", "121143.449000", "121143.454000", "121143.456000", "121143.459000", "121143.461000", "121143.466000", "121143.468000", "121143.470000", "121143.473000", "121143.475000", "121143.478000", "121143.480000", "121143.483000", "121203.274000", "121203.276000", "121203.279000", "121203.281000", "121203.284000", "121203.286000", "121203.288000", "121203.291000", "121203.293000", "121203.296000", "121203.298000", "121203.301000", "121203.303000", "121203.305000", "121203.308000", "121203.310000", "121203.313000", "121203.315000", "121203.317000", "121203.320000", "121203.322000", "121203.324000", "121203.327000", "121203.329000", "121203.332000", "121203.334000", "121203.336000", "121203.339000", "121203.341000", "121203.344000", "121203.346000", "121203.349000", "121203.352000", "121223.273000", "121223.276000", "121223.278000", "121223.281000", "121223.283000", "121223.285000", "121223.288000", "121223.290000", "121223.293000", "121223.295000", "121223.297000", "121223.300000", "121223.302000", "121223.305000", "121223.307000", "121223.310000", "121223.312000", "121223.314000", "121223.317000", "121223.319000", "121223.322000", "121223.324000", "121223.327000", "121223.332000", "121223.334000", "121223.337000", "121223.339000", "121223.346000", "121223.348000", "121223.351000", "121223.353000", "121223.356000", "121223.370000", "121243.273000", "121243.276000", "121243.278000", "121243.281000", "121243.291000", "121243.294000", "121243.296000", "121243.298000", "121243.301000", "121243.312000", "121243.315000", "121243.317000", "121243.320000", "121243.322000", "121243.324000", "121243.327000", "121243.329000", "121243.332000", "121243.334000", "121243.336000", "121243.339000", "121243.341000", "121243.344000", "121243.346000", "121243.349000", "121243.351000", "121243.353000", "121243.356000", "121243.358000", "121243.361000", "121243.363000", "121243.365000", "121243.368000", "121303.274000", "121303.277000", "121303.280000", "121303.282000", "121303.285000", "121303.287000", "121303.290000", "121303.292000", "121303.295000", "121303.297000", "121303.300000", "121303.302000", "121303.305000", "121303.307000", "121303.310000", "121303.312000", "121303.314000", "121303.317000", "121303.319000", "121303.322000", "121303.324000", "121303.326000", "121303.329000", "121303.331000", "121303.334000", "121303.336000", "121303.338000", "121303.341000", "121303.343000", "121303.346000", "121303.348000", "121303.351000", "121323.274000", "121323.277000", "121323.280000", "121323.282000", "121323.284000", "121323.287000", "121323.289000", "121323.292000", "121323.294000", "121323.297000", "121323.299000", "121323.301000", "121323.304000", "121323.306000", "121323.309000", "121323.311000", "121323.314000", "121323.317000", "121323.319000", "121323.322000", "121323.324000", "121323.327000", "121323.329000", "121323.331000", "121323.334000", "121323.336000", "121323.339000", "121323.341000", "121323.343000", "121323.346000", "121323.348000", "121323.351000", "121323.353000", "121343.274000", "121343.277000", "121343.279000", "121343.282000", "121343.284000", "121343.293000", "121343.295000", "121343.298000", "121343.300000", "121343.303000", "121343.306000", "121343.308000", "121343.310000", "121343.313000", "121343.315000", "121343.318000", "121343.320000", "121343.323000", "121343.325000", "121343.327000", "121343.330000", "121343.333000", "121343.335000", "121343.338000", "121343.340000", "121343.342000", "121343.345000", "121343.347000", "121343.350000", "121343.352000", "121343.354000", "121343.357000", "121343.359000", "121403.273000", "121403.276000", "121403.279000", "121403.281000", "121403.283000", "121403.286000", "121403.288000", "121403.291000", "121403.293000", "121403.295000", "121403.298000", "121403.300000", "121403.303000", "121403.305000", "121403.308000", "121403.310000", "121403.312000", "121403.315000", "121403.317000", "121403.320000", "121403.322000", "121403.325000", "121403.327000", "121403.330000", "121403.332000", "121403.334000", "121403.337000", "121403.339000", "121403.342000", "121403.344000", "121403.347000", "121403.363000", "121403.365000", "121423.273000", "121423.276000", "121423.278000", "121423.281000", "121423.283000", "121423.285000", "121423.288000", "121423.291000", "121423.293000", "121423.295000", "121423.298000", "121423.300000", "121423.303000", "121423.305000", "121423.310000", "121423.313000", "121423.315000", "121423.318000", "121423.320000", "121423.323000", "121423.325000", "121423.328000", "121423.330000", "121423.332000", "121423.335000", "121423.337000", "121423.340000", "121423.342000", "121423.344000", "121423.347000", "121423.349000", "121423.352000", "121423.354000", "121443.273000", "121443.276000", "121443.278000", "121443.281000", "121443.283000", "121443.286000", "121443.288000", "121443.291000", "121443.293000", "121443.295000", "121443.298000", "121443.300000", "121443.303000", "121443.305000", "121443.308000", "121443.310000", "121443.312000", "121443.315000", "121443.317000", "121443.320000", "1