{"AcquisitionMatrixPE": 64, "AcquisitionNumber": 1, "AcquisitionTime": "16:40:15.732500", "BandwidthPerPixelPhaseEncode": 28.935, "BaseResolution": 64, "BodyPartExamined": "BRAIN", "CoilCombinationMethod": "Sum of Squares", "ConsistencyInfo": "N4_VE11E_LATEST_20181129", "ConversionSoftware": "dcm2niix", "ConversionSoftwareVersion": "v1.0.20230411", "DerivedVendorReportedEchoSpacing": 0.000540003, "DeviceSerialNumber": "166182", "DwellTime": 3.4e-06, "EchoTime": 0.032, "EchoTrainLength": 64, "EffectiveEchoSpacing": 0.000540003, "FlipAngle": 40, "HeudiconvVersion": "0.13.1", "ImageOrientationPatientDICOM": [0.995052, -0.0574754, -0.0810499, 0.0504072, 0.994958, -0.0867105], "ImageOrientationText": "Tra>Sag(-4.9)>Cor(-4.7)", "ImageType": ["ORIGINAL", "PRIMARY", "M", "ND", "NORM", "MOSAIC"], "ImagingFrequency": 123.257451, "InPlanePhaseEncodingDirectionDICOM": "COL", "InstitutionAddress": "PEARSE STREET .,City,District,IE,D2", "InstitutionName": "TCIN", "InstitutionalDepartmentName": "MRI", "MRAcquisitionType": "2D", "MagneticFieldStrength": 3, "Manufacturer": "Siemens", "ManufacturersModelName": "Prisma", "Modality": "MR", "MultibandAccelerationFactor": 4, "NonlinearGradientCorrection": false, "PartialFourier": 1, "PatientPosition": "HFS", "PercentPhaseFOV": 100, "PercentSampling": 100, "PhaseEncodingDirection": "j-", "PhaseEncodingSteps": 64, "PhaseResolution": 1, "PixelBandwidth": 2300, "ProcedureStepDescription": "Rhodri^Head BOLD", "ProtocolName": "cmrr_mbep2d_bold_Pictures_AP", "PulseSequenceDetails": "%SiemensSeq%\\ep2d_bold", "ReceiveCoilActiveElements": "HC2,4,6,7;NC2;SC", "ReceiveCoilName": "SpecialPurpose_4", "ReconMatrixPE": 64, "RefLinesPE": 12, "RepetitionTime": 0.61, "SAR": 0.283155, "ScanOptions": "FS", "ScanningSequence": "EP", "SequenceName": "*epfid2d1_64", "SequenceVariant": "SK", "SeriesDescription": "cmrr_mbep2d_bold_Pictures_AP", "SeriesNumber": 10, "ShimSetting": [-3624, -7449, 3808, 948, 16, 477, 1, 225], "SliceThickness": 3, "SliceTiming": [0.26, 0, 0.3275, 0.065, 0.3925, 0.13, 0.4575, 0.195, 0.5225, 0.26, 0, 0.3275, 0.065, 0.3925, 0.13, 0.4575, 0.195, 0.5225, 0.26, 0, 0.3275, 0.065, 0.3925, 0.13, 0.4575, 0.195, 0.5225, 0.26, 0, 0.3275, 0.065, 0.3925, 0.13, 0.4575, 0.195, 0.5225], "SoftwareVersions": "syngo MR E11", "SpacingBetweenSlices": 3.3, "StationName": "AWP166182", "TaskName": "pictures", "TotalReadoutTime": 0.0340202, "TxRefAmp": 246.35, "dcmmeta_affine": [[-2.985154390335083, 0.15122154355049133, -0.2825622856616974, 97.64605712890625], [0.17242629826068878, 2.984872579574585, -0.27124637365341187, -104.22481536865234], [-0.24314971268177032, 0.2601313591003418, 3.276672601699829, -108.41417694091797], [0.0, 0.0, 0.0, 1.0]], "dcmmeta_reorient_transform": [[0.0, -1.0, 0.0, 63.0], [1.0, 0.0, 0.0, 0.0], [0.0, 0.0, 1.0, 0.0], [0.0, 0.0, 0.0, 1.0]], "dcmmeta_shape": [64, 64, 36, 172], "dcmmeta_slice_dim": 2, "dcmmeta_version": 0.6, "global": {"const": {"AcquisitionMatrix": [64, 0, 0, 64], "AngioFlag": "N", "BitsAllocated": 16, "BitsStored": 12, "BodyPartExamined": "BRAIN", "Columns": 384, "EchoNumbers": 1, "EchoTime": 32.0, "EchoTrainLength": 64, "FlipAngle": 40.0, "HighBit": 11, "ImageOrientationPatient": [0.99505149994973, -0.0574754332991, -0.0810499044717, 0.05040717895449, 0.99495749330018, -0.0867104540161], "ImagePositionPatient": [-608.99318046744, -533.8135410342, -11.500931033022], "ImageType": ["ORIGINAL", "PRIMARY", "M", "ND", "NORM", "MOSAIC"], "ImagedNucleus": "1H", "ImagingFrequency": 123.257451, "InPlanePhaseEncodingDirection": "COL", "MRAcquisitionType": "2D", "MagneticFieldStrength": 3.0, "Manufacturer": "SIEMENS", "ManufacturerModelName": "Prisma", "Modality": "MR", "NumberOfAverages": 1.0, "NumberOfPhaseEncodingSteps": 64, "PercentPhaseFieldOfView": 100.0, "PercentSampling": 100.0, "PerformedProcedureStepStartTime": "162353.011000", "PhotometricInterpretation": "MONOCHROME2", "PixelBandwidth": 2300.0, "PixelRepresentation": 0, "PixelSpacing": [3.0, 3.0], "ProtocolName": "cmrr_mbep2d_bold_Pictures_AP", "RepetitionTime": 610.0, "Rows": 384, "SAR": 0.2831550674983, "SamplesPerPixel": 1, "ScanOptions": "FS", "ScanningSequence": "EP", "SequenceName": "*epfid2d1_64", "SequenceVariant": "SK", "SeriesDescription": "cmrr_mbep2d_bold_Pictures_AP", "SeriesNumber": 10, "SeriesTime": "164045.620000", "SliceLocation": -107.44189979162, "SliceThickness": 3.0, "SmallestImagePixelValue": 0, "SoftwareVersions": "syngo MR E11", "SpacingBetweenSlices": 3.3000000063888, "SpecificCharacterSet": "ISO_IR 100", "StudyID": "2", "StudyTime": "162352.903000", "TransmitCoilName": "Body", "VariableFlipAngleFlag": "N", "WindowCenterWidthExplanation": "Algo1"}, "slices": {}}, "time": {"samples": {"AcquisitionNumber": [1, 2, 3, 4, 5, 6, 7, 8, 9, 10, 11, 12, 13, 14, 15, 16, 17, 18, 19, 20, 21, 22, 23, 24, 25, 26, 27, 28, 29, 30, 31, 32, 33, 34, 35, 36, 37, 38, 39, 40, 41, 42, 43, 44, 45, 46, 47, 48, 49, 50, 51, 52, 53, 54, 55, 56, 57, 58, 59, 60, 61, 62, 63, 64, 65, 66, 67, 68, 69, 70, 71, 72, 73, 74, 75, 76, 77, 78, 79, 80, 81, 82, 83, 84, 85, 86, 87, 88, 89, 90, 91, 92, 93, 94, 95, 96, 97, 98, 99, 100, 101, 102, 103, 104, 105, 106, 107, 108, 109, 110, 111, 112, 113, 114, 115, 116, 117, 118, 119, 120, 121, 122, 123, 124, 125, 126, 127, 128, 129, 130, 131, 132, 133, 134, 135, 136, 137, 138, 139, 140, 141, 142, 143, 144, 145, 146, 147, 148, 149, 150, 151, 152, 153, 154, 155, 156, 157, 158, 159, 160, 161, 162, 163, 164, 165, 166, 167, 168, 169, 170, 171, 172], "AcquisitionTime": ["164015.732500", "164016.342500", "164016.952500", "164017.562500", "164018.172500", "164018.782500", "164019.392500", "164020.002500", "164020.612500", "164021.222500", "164021.832500", "164022.442500", "164023.052500", "164023.662500", "164024.272500", "164024.882500", "164025.492500", "164026.102500", "164026.712500", "164027.322500", "164027.932500", "164028.542500", "164029.152500", "164029.762500", "164030.372500", "164030.982500", "164031.592500", "164032.202500", "164032.812500", "164033.422500", "164034.032500", "164034.642500", "164035.252500", "164035.862500", "164036.472500", "164037.082500", "164037.692500", "164038.302500", "164038.912500", "164039.522500", "164040.132500", "164040.742500", "164041.352500", "164041.962500", "164042.572500", "164043.182500", "164043.792500", "164044.402500", "164045.012500", "164045.622500", "164046.232500", "164046.842500", "164047.452500", "164048.062500", "164048.672500", "164049.282500", "164049.892500", "164050.502500", "164051.112500", "164051.722500", "164052.332500", "164052.942500", "164053.552500", "164054.162500", "164054.772500", "164055.382500", "164055.992500", "164056.602500", "164057.212500", "164057.822500", "164058.432500", "164059.042500", "164059.652500", "164100.262500", "164100.872500", "164101.482500", "164102.092500", "164102.702500", "164103.312500", "164103.922500", "164104.532500", "164105.142500", "164105.752500", "164106.362500", "164106.972500", "164107.582500", "164108.192500", "164108.802500", "164109.412500", "164110.022500", "164110.632500", "164111.242500", "164111.852500", "164112.462500", "164113.072500", "164113.682500", "164114.292500", "164114.902500", "164115.512500", "164116.122500", "164116.732500", "164117.342500", "164117.952500", "164118.562500", "164119.172500", "164119.782500", "164120.392500", "164121.002500", "164121.612500", "164122.222500", "164122.832500", "164123.442500", "164124.052500", "164124.662500", "164125.272500", "164125.882500", "164126.492500", "164127.102500", "164127.712500", "164128.322500", "164128.932500", "164129.542500", "164130.152500", "164130.762500", "164131.372500", "164131.982500", "164132.592500", "164133.202500", "164133.812500", "164134.422500", "164135.032500", "164135.642500", "164136.252500", "164136.862500", "164137.472500", "164138.082500", "164138.692500", "164139.302500", "164139.912500", "164140.522500", "164141.132500", "164141.742500", "164142.352500", "164142.962500", "164143.572500", "164144.182500", "164144.792500", "164145.402500", "164146.012500", "164146.622500", "164147.232500", "164147.842500", "164148.452500", "164149.062500", "164149.672500", "164150.282500", "164150.892500", "164151.502500", "164152.112500", "164152.722500", "164153.332500", "164153.942500", "164154.552500", "164155.162500", "164155.772500", "164156.382500", "164156.992500", "164157.602500", "164158.212500", "164158.822500", "164159.432500", "164200.042500"], "ContentTime": ["164045.623000", "164045.626000", "164045.635000", "164045.637000", "164045.640000", "164045.642000", "164045.644000", "164045.647000", "164045.652000", "164045.654000", "164045.657000", "164045.659000", "164045.662000", "164045.664000", "164045.666000", "164045.669000", "164045.671000", "164045.674000", "164045.676000", "164045.679000", "164045.681000", "164045.684000", "164045.686000", "164045.688000", "164045.691000", "164045.693000", "164045.695000", "164045.699000", "164045.701000", "164045.704000", "164045.706000", "164045.708000", "164045.711000", "164045.713000", "164045.716000", "164045.718000", "164045.721000", "164045.723000", "164045.725000", "164045.728000", "164045.730000", "164045.733000", "164045.735000", "164045.738000", "164045.740000", "164045.742000", "164045.747000", "164105.609000", "164105.612000", "164105.615000", "164105.617000", "164105.619000", "164105.622000", "164105.624000", "164105.627000", "164105.629000", "164105.631000", "164105.634000", "164105.636000", "164105.638000", "164105.641000", "164105.643000", "164105.646000", "164105.648000", "164105.651000", "164105.653000", "164105.656000", "164105.658000", "164105.660000", "164105.663000", "164105.665000", "164105.668000", "164105.670000", "164105.672000", "164105.675000", "164105.677000", "164105.680000", "164105.682000", "164105.684000", "164105.692000", "164125.609000", "164125.612000", "164125.616000", "164125.619000", "164125.621000", "164125.623000", "164125.626000", "164125.628000", "164125.631000", "164125.633000", "164125.635000", "164125.638000", "164125.640000", "164125.643000", "164125.645000", "164125.647000", "164125.650000", "164125.652000", "164125.655000", "164125.657000", "164125.660000", "164125.662000", "164125.664000", "164125.667000", "164125.669000", "164125.672000", "164125.674000", "164125.677000", "164125.679000", "164125.681000", "164125.684000", "164125.686000", "164125.689000", "164145.609000", "164145.612000", "164145.615000", "164145.617000", "164145.619000", "164145.622000", "164145.624000", "164145.627000", "164145.629000", "164145.632000", "164145.634000", "164145.636000", "164145.639000", "164145.641000", "164145.644000", "164145.646000", "164145.648000", "164145.651000", "164145.653000", "164145.656000", "164145.658000", "164145.661000", "164145.664000", "164145.666000", "164145.669000", "164145.671000", "164145.673000", "164145.676000", "164145.678000", "164145.681000", "164145.683000", "164145.686000", "164201.924000", "164201.927000", "164201.929000", "164201.932000", "164201.934000", "164201.937000", "164201.939000", "164201.942000", "164201.944000", "164201.946000", "164201.949000", "164201.952000", "164201.954000", "164201.957000", "164201.959000", "164201.962000", "164201.965000", "164201.968000", "164201.970000", "164201.973000", "164201.975000", "164201.981000", "164201.984000", "164201.988000", "164201.991000", "164201.994000", "164201.997000"], "InstanceCreationTime": ["164045.623000", "164045.626000", "164045.635000", "164045.637000", "164045.640000", "164045.642000", "164045.644000", "164045.647000", "164045.652000", "164045.654000", "164045.657000", "164045.659000", "164045.662000", "164045.664000", "164045.666000", "164045.669000", "164045.671000", "164045.674000", "164045.676000", "164045.679000", "164045.681000", "164045.684000", "164045.686000", "164045.688000", "164045.691000", "164045.693000", "164045.695000", "164045.699000", "164045.701000", "164045.704000", "164045.706000", "164045.708000", "164045.711000", "164045.713000", "164045.716000", "164045.718000", "164045.721000", "164045.723000", "164045.725000", "164045.728000", "164045.730000", "164045.733000", "164045.735000", "164045.738000", "164045.740000", "164045.742000", "164045.747000", "164105.609000", "164105.612000", "164105.615000", "164105.617000", "164105.619000", "164105.622000", "164105.624000", "164105.627000", "164105.629000", "164105.631000", "164105.634000", "164105.636000", "164105.638000", "164105.641000", "164105.643000", "164105.646000", "164105.648000", "164105.651000", "164105.653000", "164105.656000", "164105.658000", "164105.660000", "164105.663000", "164105.665000", "164105.668000", "164105.670000", "164105.672000", "164105.675000", "164105.677000", "164105.680000", "164105.682000", "164105.684000", "164105.692000", "164125.609000", "164125.612000", "164125.616000", "164125.619000", "164125.621000", "164125.623000", "164125.626000", "164125.628000", "164125.631000", "164125.633000", "164125.635000", "164125.638000", "164125.640000", "164125.643000", "164125.645000", "164125.647000", "164125.650000", "164125.652000", "164125.655000", "164125.657000", "164125.660000", "164125.662000", "164125.664000", "164125.667000", "164125.669000", "164125.672000", "164125.674000", "164125.677000", "164125.679000", "164125.681000", "164125.684000", "164125.686000", "164125.689000", "164145.609000", "164145.612000", "164145.615000", "164145.617000", "164145.619000", "164145.622000", "164145.624000", "164145.627000", "164145.629000", "164145.632000", "164145.634000", "164145.636000", "164145.639000", "164145.641000", "164145.644000", "164145.646000", "164145.648000", "164145.651000", "164145.653000", "164145.656000", "164145.658000", "164145.661000", "164145.664000", "164145.666000", "164145.669000", "164145.671000", "164145.673000", "164145.676000", "164145.678000", "164145.681000", "164145.683000", "164145.686000", "164201.924000", "164201.927000", "164201.929000", "164201.932000", "164201.934000", "164201.937000", "164201.939000", "164201.942000", "164201.944000", "164201.946000", "164201.949000", "164201.952000", "164201.954000", "164201.957000", "164201.959000", "164201.962000", "164201.965000", "164201.968000", "164201.970000", "164201.973000", "164201.975000", "164201.981000", "164201.984000", "164201.988000", "164201.991000", "164201.994000", "164201.997000"], "InstanceNumber": [1, 2, 3, 4, 5, 6, 7, 8, 9, 10, 11, 12, 13, 14, 15, 16, 17, 18, 19, 20, 21, 22, 23, 24, 25, 26, 27, 28, 29, 30, 31, 32, 33, 34, 35, 36, 37, 38, 39, 40, 41, 42, 43, 44, 45, 46, 47, 48, 49, 50, 51, 52, 53, 54, 55, 56, 57, 58, 59, 60, 61, 62, 63, 64, 65, 66, 67, 68, 69, 70, 71, 72, 73, 74, 75, 76, 77, 78, 79, 80, 81, 82, 83, 84, 85, 86, 87, 88, 89, 90, 91, 92, 93, 94, 95, 96, 97, 98, 99, 100, 101, 102, 103, 104, 105, 106, 107, 108, 109, 110, 111, 112, 113, 114, 115, 116, 117, 118, 119, 120, 121, 122, 123, 124, 125, 126, 127, 128, 129, 130, 131, 132, 133, 134, 135, 136, 137, 138, 139, 140, 141, 142, 143, 144, 145, 146, 147, 148, 149, 150, 151, 152, 153, 154, 155, 156, 157, 158, 159, 160, 161, 162, 163, 164, 165, 166, 167, 168, 169, 170, 171, 172], "LargestImagePixelValue": [523, 478, 494, 492, 462, 489, 488, 452, 483, 492, 490, 462, 475, 447, 482, 474, 464, 443, 443, 459, 464, 457, 463, 445, 451, 445, 451, 444, 443, 451, 450, 461, 457, 453, 452, 453, 451, 449, 450, 492, 495, 551, 511, 511, 491, 491, 478, 455, 447, 438, 433, 444, 438, 456, 467, 459, 453, 448, 440, 453, 436, 466, 448, 467, 452, 472, 469, 442, 434, 445, 447, 443, 444, 460, 460, 572, 517, 504, 466, 464, 451, 450, 445, 467, 514, 526, 481, 482, 470, 458, 448, 454, 444, 447, 460, 461, 455, 506, 525, 489, 566, 481, 462, 457, 447, 455, 456, 455, 491, 525, 468, 473, 497, 470, 476, 488, 448, 476, 456, 471, 571, 586, 600, 525, 493, 490, 467, 523, 503, 472, 443, 449, 450, 454, 456, 455, 469, 460, 488, 462, 514, 518, 459, 470, 464, 489, 504, 495, 495, 443, 465, 509, 484, 457, 465, 446, 459, 466, 458, 459, 457, 557, 495, 446, 454, 489, 450, 464, 448, 440, 541, 470], "WindowCenter": [302.0, 298.0, 298.0, 295.0, 296.0, 295.0, 294.0, 292.0, 293.0, 293.0, 293.0, 292.0, 291.0, 291.0, 293.0, 292.0, 292.0, 294.0, 293.0, 294.0, 293.0, 293.0, 294.0, 292.0, 293.0, 293.0, 293.0, 294.0, 294.0, 294.0, 296.0, 294.0, 294.0, 295.0, 294.0, 294.0, 295.0, 295.0, 296.0, 295.0, 293.0, 296.0, 294.0, 293.0, 292.0, 293.0, 292.0, 291.0, 292.0, 292.0, 292.0, 293.0, 294.0, 294.0, 294.0, 293.0, 294.0, 293.0, 293.0, 294.0, 293.0, 294.0, 294.0, 294.0, 294.0, 294.0, 293.0, 292.0, 294.0, 295.0, 294.0, 293.0, 295.0, 296.0, 295.0, 297.0, 292.0, 294.0, 295.0, 293.0, 295.0, 296.0, 295.0, 291.0, 294.0, 296.0, 294.0, 295.0, 294.0, 294.0, 294.0, 295.0, 293.0, 293.0, 294.0, 294.0, 294.0, 296.0, 292.0, 294.0, 293.0, 293.0, 293.0, 293.0, 294.0, 295.0, 297.0, 296.0, 297.0, 297.0, 296.0, 295.0, 295.0, 294.0, 295.0, 294.0, 294.0, 294.0, 291.0, 296.0, 295.0, 295.0, 294.0, 296.0, 296.0, 297.0, 295.0, 296.0, 294.0, 294.0, 295.0, 293.0, 293.0, 293.0, 295.0, 294.0, 293.0, 293.0, 296.0, 290.0, 294.0, 294.0, 294.0, 294.0, 296.0, 297.0, 296.0, 294.0, 294.0, 292.0, 294.0, 295.0, 294.0, 294.0, 294.0, 293.0, 294.0, 295.0, 295.0, 294.0, 293.0, 295.0, 294.0, 291.0, 292.0, 291.0, 291.0, 288.0, 290.0, 290.0, 294.0, 295.0], "WindowWidth": [654.0, 647.0, 647.0, 642.0, 644.0, 641.0, 639.0, 637.0, 638.0, 638.0, 637.0, 635.0, 633.0, 632.0, 638.0, 636.0, 635.0, 640.0, 638.0, 639.0, 638.0, 638.0, 639.0, 637.0, 638.0, 638.0, 638.0, 639.0, 640.0, 640.0, 643.0, 641.0, 641.0, 643.0, 640.0, 640.0, 642.0, 641.0, 644.0, 641.0, 638.0, 642.0, 639.0, 637.0, 635.0, 636.0, 635.0, 634.0, 636.0, 636.0, 636.0, 638.0, 639.0, 639.0, 640.0, 639.0, 639.0, 638.0, 638.0, 639.0, 638.0, 639.0, 640.0, 639.0, 640.0, 639.0, 638.0, 637.0, 640.0, 643.0, 641.0, 638.0, 642.0, 643.0, 643.0, 644.0, 635.0, 639.0, 641.0, 639.0, 642.0, 643.0, 641.0, 634.0, 640.0, 644.0, 640.0, 642.0, 640.0, 640.0, 639.0, 641.0, 637.0, 639.0, 640.0, 640.0, 640.0, 643.0, 636.0, 640.0, 638.0, 638.0, 638.0, 638.0, 641.0, 642.0, 646.0, 643.0, 645.0, 644.0, 643.0, 643.0, 641.0, 639.0, 642.0, 640.0, 640.0, 641.0, 635.0, 644.0, 641.0, 642.0, 640.0, 644.0, 644.0, 645.0, 642.0, 642.0, 639.0, 640.0, 641.0, 638.0, 638.0, 639.0, 641.0, 639.0, 637.0, 638.0, 643.0, 633.0, 640.0, 639.0, 640.0, 640.0, 644.0, 645.0, 644.0, 641.0, 641.0, 637.0, 641.0, 642.0, 640.0, 640.0, 639.0, 637.0, 640.0, 641.0, 641.0, 639.0, 638.0, 641.0, 640.0, 635.0, 637.0, 633.0, 634.0, 628.0, 631.0, 631.0, 639.0, 642.0]}, "slices": {}}, "EventTimestamp": "16-42-38"}