{"AcquisitionMatrixPE": 64, "AcquisitionNumber": 1, "AcquisitionTime": "10:13:31.710000", "BandwidthPerPixelPhaseEncode": 28.935, "BaseResolution": 64, "BodyPartExamined": "BRAIN", "CoilString": "HC2_4_6_7;SC", "ConsistencyInfo": "N4_VE11E_LATEST_20181129", "ConversionSoftware": "dcm2niix", "ConversionSoftwareVersion": "v1.0.20190902", "DerivedVendorReportedEchoSpacing": 0.000540003, "DeviceSerialNumber": "166182", "DwellTime": 3.4e-06, "EchoTime": 0.032, "EchoTrainLength": 64, "EffectiveEchoSpacing": 0.000540003, "FlipAngle": 40, "ImageOrientationPatientDICOM": [0.999, -0.0436946, 0.00950774, 0.0436173, 0.999015, 0.00819116], "ImageType": ["ORIGINAL", "PRIMARY", "M", "ND", "NORM", "MOSAIC"], "ImagingFrequency": 123.256, "InPlanePhaseEncodingDirectionDICOM": "COL", "InstitutionAddress": "PEARSE_STREET_._City_District_IE_D2", "InstitutionName": "TCIN", "InstitutionalDepartmentName": "MRI", "MRAcquisitionType": "2D", "MagneticFieldStrength": 3, "Manufacturer": "Siemens", "ManufacturersModelName": "Prisma", "Modality": "MR", "MultibandAccelerationFactor": 4, "PartialFourier": 1, "PatientPosition": "HFS", "PercentPhaseFOV": 100, "PhaseEncodingDirection": "j-", "PhaseEncodingSteps": 64, "PhaseResolution": 1, "PixelBandwidth": 2300, "ProcedureStepDescription": "Rhodri_Head_BOLD", "ProtocolName": "cmrr_mbep2d_Pictures_AP_RDS", "PulseSequenceDetails": "%SiemensSeq%_ep2d_bold", "ReceiveCoilActiveElements": "HC2,4,6,7;SC", "ReceiveCoilName": "SpecialPurpose_4", "ReconMatrixPE": 64, "RefLinesPE": 12, "RepetitionTime": 0.61, "SAR": 0.283816, "ScanOptions": "FS", "ScanningSequence": "EP", "SequenceName": "_epfid2d1_64", "SequenceVariant": "SK", "SeriesDescription": "cmrr_mbep2d_Pictures_AP_RDS", "SeriesNumber": 8, "ShimSetting": [-3625, -7441, 3819, 968, -52, 225, -49, -20], "SliceThickness": 3, "SliceTiming": [0.26, 0, 0.3275, 0.065, 0.3925, 0.13, 0.4575, 0.195, 0.5225, 0.26, 0, 0.3275, 0.065, 0.3925, 0.13, 0.4575, 0.195, 0.5225, 0.26, 0, 0.3275, 0.065, 0.3925, 0.13, 0.4575, 0.195, 0.5225, 0.26, 0, 0.3275, 0.065, 0.3925, 0.13, 0.4575, 0.195, 0.5225], "SoftwareVersions": "syngo_MR_E11", "SpacingBetweenSlices": 3.3, "StationName": "AWP166182", "TaskName": "pictures", "TotalReadoutTime": 0.0340202, "TxRefAmp": 231.736, "dcmmeta_affine": [[-2.9969990253448486, 0.13085199892520905, 0.032525718212127686, 93.05184936523438], [0.1310839056968689, 2.997044086456299, 0.02563527785241604, -102.31040954589844], [0.02852320671081543, -0.02457348443567753, 3.2997400760650635, -100.72456359863281], [0.0, 0.0, 0.0, 1.0]], "dcmmeta_reorient_transform": [[0.0, -1.0, 0.0, 63.0], [1.0, 0.0, 0.0, 0.0], [0.0, 0.0, 1.0, 0.0], [0.0, 0.0, 0.0, 1.0]], "dcmmeta_shape": [64, 64, 36, 510], "dcmmeta_slice_dim": 2, "dcmmeta_version": 0.6, "global": {"const": {"AcquisitionMatrix": [64, 0, 0, 64], "AngioFlag": "N", "BitsAllocated": 16, "BitsStored": 12, "BodyPartExamined": "BRAIN", "Columns": 384, "EchoNumbers": 1, "EchoTime": 32.0, "EchoTrainLength": 64, "FlipAngle": 40.0, "HighBit": 11, "ImageOrientationPatient": [0.99899969062246, -0.0436946346495, 0.00950773574865, 0.04361733511399, 0.99901473109706, 0.00819116161611], "ImagePositionPatient": [-601.751697095, -545.05702339238, -110.76816565114], "ImageType": ["ORIGINAL", "PRIMARY", "M", "ND", "NORM", "MOSAIC"], "ImagedNucleus": "1H", "ImagingFrequency": 123.256458, "InPlanePhaseEncodingDirection": "COL", "MRAcquisitionType": "2D", "MagneticFieldStrength": 3.0, "Manufacturer": "SIEMENS", "ManufacturerModelName": "Prisma", "Modality": "MR", "NumberOfAverages": 1.0, "NumberOfPhaseEncodingSteps": 64, "PercentPhaseFieldOfView": 100.0, "PercentSampling": 100.0, "PerformedProcedureStepStartTime": "095450.932000", "PhotometricInterpretation": "MONOCHROME2", "PixelBandwidth": 2300.0, "PixelRepresentation": 0, "PixelSpacing": [3.0, 3.0], "ProtocolName": "cmrr_mbep2d_Pictures_AP_RDS", "RepetitionTime": 610.0, "Rows": 384, "SAR": 0.2838157073827, "SamplesPerPixel": 1, "ScanOptions": "FS", "ScanningSequence": "EP", "SequenceName": "*epfid2d1_64", "SequenceVariant": "SK", "SeriesDescription": "cmrr_mbep2d_Pictures_AP_RDS", "SeriesNumber": 8, "SeriesTime": "101352.762000", "SliceLocation": -100.59426295626, "SliceThickness": 3.0, "SmallestImagePixelValue": 0, "SoftwareVersions": "syngo MR E11", "SpacingBetweenSlices": 3.3000000370027, "SpecificCharacterSet": "ISO_IR 100", "StudyID": "1", "StudyTime": "095450.798000", "TransmitCoilName": "Body", "VariableFlipAngleFlag": "N", "WindowCenterWidthExplanation": "Algo1"}, "slices": {}}, "time": {"samples": {"AcquisitionNumber": [1, 2, 3, 4, 5, 6, 7, 8, 9, 10, 11, 12, 13, 14, 15, 16, 17, 18, 19, 20, 21, 22, 23, 24, 25, 26, 27, 28, 29, 30, 31, 32, 33, 34, 35, 36, 37, 38, 39, 40, 41, 42, 43, 44, 45, 46, 47, 48, 49, 50, 51, 52, 53, 54, 55, 56, 57, 58, 59, 60, 61, 62, 63, 64, 65, 66, 67, 68, 69, 70, 71, 72, 73, 74, 75, 76, 77, 78, 79, 80, 81, 82, 83, 84, 85, 86, 87, 88, 89, 90, 91, 92, 93, 94, 95, 96, 97, 98, 99, 100, 101, 102, 103, 104, 105, 106, 107, 108, 109, 110, 111, 112, 113, 114, 115, 116, 117, 118, 119, 120, 121, 122, 123, 124, 125, 126, 127, 128, 129, 130, 131, 132, 133, 134, 135, 136, 137, 138, 139, 140, 141, 142, 143, 144, 145, 146, 147, 148, 149, 150, 151, 152, 153, 154, 155, 156, 157, 158, 159, 160, 161, 162, 163, 164, 165, 166, 167, 168, 169, 170, 171, 172, 173, 174, 175, 176, 177, 178, 179, 180, 181, 182, 183, 184, 185, 186, 187, 188, 189, 190, 191, 192, 193, 194, 195, 196, 197, 198, 199, 200, 201, 202, 203, 204, 205, 206, 207, 208, 209, 210, 211, 212, 213, 214, 215, 216, 217, 218, 219, 220, 221, 222, 223, 224, 225, 226, 227, 228, 229, 230, 231, 232, 233, 234, 235, 236, 237, 238, 239, 240, 241, 242, 243, 244, 245, 246, 247, 248, 249, 250, 251, 252, 253, 254, 255, 256, 257, 258, 259, 260, 261, 262, 263, 264, 265, 266, 267, 268, 269, 270, 271, 272, 273, 274, 275, 276, 277, 278, 279, 280, 281, 282, 283, 284, 285, 286, 287, 288, 289, 290, 291, 292, 293, 294, 295, 296, 297, 298, 299, 300, 301, 302, 303, 304, 305, 306, 307, 308, 309, 310, 311, 312, 313, 314, 315, 316, 317, 318, 319, 320, 321, 322, 323, 324, 325, 326, 327, 328, 329, 330, 331, 332, 333, 334, 335, 336, 337, 338, 339, 340, 341, 342, 343, 344, 345, 346, 347, 348, 349, 350, 351, 352, 353, 354, 355, 356, 357, 358, 359, 360, 361, 362, 363, 364, 365, 366, 367, 368, 369, 370, 371, 372, 373, 374, 375, 376, 377, 378, 379, 380, 381, 382, 383, 384, 385, 386, 387, 388, 389, 390, 391, 392, 393, 394, 395, 396, 397, 398, 399, 400, 401, 402, 403, 404, 405, 406, 407, 408, 409, 410, 411, 412, 413, 414, 415, 416, 417, 418, 419, 420, 421, 422, 423, 424, 425, 426, 427, 428, 429, 430, 431, 432, 433, 434, 435, 436, 437, 438, 439, 440, 441, 442, 443, 444, 445, 446, 447, 448, 449, 450, 451, 452, 453, 454, 455, 456, 457, 458, 459, 460, 461, 462, 463, 464, 465, 466, 467, 468, 469, 470, 471, 472, 473, 474, 475, 476, 477, 478, 479, 480, 481, 482, 483, 484, 485, 486, 487, 488, 489, 490, 491, 492, 493, 494, 495, 496, 497, 498, 499, 500, 501, 502, 503, 504, 505, 506, 507, 508, 509, 510], "AcquisitionTime": ["101331.710000", "101332.320000", "101332.930000", "101333.540000", "101334.150000", "101334.760000", "101335.370000", "101335.980000", "101336.590000", "101337.200000", "101337.810000", "101338.420000", "101339.030000", "101339.640000", "101340.250000", "101340.860000", "101341.470000", "101342.080000", "101342.690000", "101343.300000", "101343.910000", "101344.520000", "101345.130000", "101345.740000", "101346.350000", "101346.960000", "101347.570000", "101348.180000", "101348.790000", "101349.400000", "101350.010000", "101350.620000", "101351.230000", "101351.840000", "101352.450000", "101353.060000", "101353.670000", "101354.280000", "101354.890000", "101355.500000", "101356.110000", "101356.720000", "101357.330000", "101357.940000", "101358.550000", "101359.160000", "101359.770000", "101400.380000", "101400.990000", "101401.600000", "101402.210000", "101402.820000", "101403.430000", "101404.040000", "101404.650000", "101405.260000", "101405.870000", "101406.480000", "101407.090000", "101407.700000", "101408.310000", "101408.920000", "101409.530000", "101410.140000", "101410.750000", "101411.360000", "101411.970000", "101412.580000", "101413.190000", "101413.800000", "101414.410000", "101415.020000", "101415.630000", "101416.240000", "101416.850000", "101417.460000", "101418.070000", "101418.680000", "101419.290000", "101419.900000", "101420.510000", "101421.120000", "101421.730000", "101422.340000", "101422.950000", "101423.560000", "101424.170000", "101424.780000", "101425.390000", "101426.000000", "101426.610000", "101427.220000", "101427.830000", "101428.440000", "101429.050000", "101429.660000", "101430.270000", "101430.880000", "101431.490000", "101432.100000", "101432.710000", "101433.320000", "101433.930000", "101434.540000", "101435.150000", "101435.760000", "101436.370000", "101436.980000", "101437.590000", "101438.200000", "101438.810000", "101439.420000", "101440.030000", "101440.640000", "101441.250000", "101441.860000", "101442.470000", "101443.080000", "101443.690000", "101444.300000", "101444.910000", "101445.520000", "101446.130000", "101446.740000", "101447.350000", "101447.960000", "101448.570000", "101449.180000", "101449.790000", "101450.400000", "101451.010000", "101451.620000", "101452.230000", "101452.840000", "101453.450000", "101454.060000", "101454.670000", "101455.280000", "101455.890000", "101456.500000", "101457.110000", "101457.720000", "101458.330000", "101458.940000", "101459.550000", "101500.160000", "101500.770000", "101501.380000", "101501.990000", "101502.600000", "101503.210000", "101503.820000", "101504.430000", "101505.040000", "101505.650000", "101506.260000", "101506.870000", "101507.480000", "101508.090000", "101508.700000", "101509.310000", "101509.920000", "101510.530000", "101511.140000", "101511.750000", "101512.360000", "101512.970000", "101513.580000", "101514.190000", "101514.800000", "101515.410000", "101516.020000", "101516.630000", "101517.240000", "101517.850000", "101518.460000", "101519.070000", "101519.680000", "101520.290000", "101520.900000", "101521.510000", "101522.120000", "101522.730000", "101523.340000", "101523.950000", "101524.560000", "101525.170000", "101525.780000", "101526.390000", "101527.000000", "101527.610000", "101528.220000", "101528.830000", "101529.440000", "101530.050000", "101530.660000", "101531.270000", "101531.880000", "101532.490000", "101533.100000", "101533.710000", "101534.320000", "101534.930000", "101535.540000", "101536.150000", "101536.760000", "101537.370000", "101537.980000", "101538.590000", "101539.200000", "101539.810000", "101540.420000", "101541.030000", "101541.640000", "101542.250000", "101542.860000", "101543.470000", "101544.080000", "101544.690000", "101545.300000", "101545.910000", "101546.520000", "101547.130000", "101547.740000", "101548.350000", "101548.960000", "101549.570000", "101550.180000", "101550.790000", "101551.400000", "101552.010000", "101552.620000", "101553.230000", "101553.840000", "101554.450000", "101555.060000", "101555.670000", "101556.280000", "101556.890000", "101557.500000", "101558.110000", "101558.720000", "101559.330000", "101559.940000", "101600.550000", "101601.160000", "101601.770000", "101602.380000", "101602.990000", "101603.600000", "101604.210000", "101604.820000", "101605.430000", "101606.040000", "101606.650000", "101607.260000", "101607.870000", "101608.480000", "101609.090000", "101609.700000", "101610.310000", "101610.920000", "101611.530000", "101612.140000", "101612.750000", "101613.360000", "101613.970000", "101614.580000", "101615.190000", "101615.800000", "101616.410000", "101617.020000", "101617.630000", "101618.240000", "101618.850000", "101619.460000", "101620.070000", "101620.680000", "101621.290000", "101621.900000", "101622.510000", "101623.120000", "101623.730000", "101624.340000", "101624.950000", "101625.560000", "101626.170000", "101626.780000", "101627.390000", "101628.000000", "101628.610000", "101629.220000", "101629.830000", "101630.440000", "101631.050000", "101631.660000", "101632.270000", "101632.880000", "101633.490000", "101634.100000", "101634.710000", "101635.320000", "101635.930000", "101636.540000", "101637.150000", "101637.760000", "101638.370000", "101638.980000", "101639.590000", "101640.200000", "101640.810000", "101641.420000", "101642.030000", "101642.640000", "101643.250000", "101643.860000", "101644.470000", "101645.080000", "101645.690000", "101646.300000", "101646.910000", "101647.520000", "101648.130000", "101648.740000", "101649.350000", "101649.960000", "101650.570000", "101651.180000", "101651.790000", "101652.400000", "101653.010000", "101653.620000", "101654.230000", "101654.840000", "101655.450000", "101656.060000", "101656.670000", "101657.280000", "101657.890000", "101658.500000", "101659.110000", "101659.720000", "101700.330000", "101700.940000", "101701.550000", "101702.160000", "101702.770000", "101703.380000", "101703.990000", "101704.600000", "101705.210000", "101705.820000", "101706.430000", "101707.040000", "101707.650000", "101708.260000", "101708.870000", "101709.480000", "101710.090000", "101710.700000", "101711.310000", "101711.920000", "101712.530000", "101713.140000", "101713.750000", "101714.360000", "101714.970000", "101715.580000", "101716.190000", "101716.800000", "101717.410000", "101718.020000", "101718.630000", "101719.240000", "101719.850000", "101720.460000", "101721.070000", "101721.680000", "101722.290000", "101722.900000", "101723.510000", "101724.120000", "101724.730000", "101725.340000", "101725.950000", "101726.560000", "101727.170000", "101727.780000", "101728.390000", "101729.000000", "101729.610000", "101730.220000", "101730.830000", "101731.440000", "101732.050000", "101732.660000", "101733.270000", "101733.880000", "101734.490000", "101735.100000", "101735.710000", "101736.320000", "101736.930000", "101737.540000", "101738.150000", "101738.760000", "101739.370000", "101739.980000", "101740.590000", "101741.200000", "101741.810000", "101742.420000", "101743.030000", "101743.640000", "101744.250000", "101744.860000", "101745.470000", "101746.080000", "101746.690000", "101747.300000", "101747.910000", "101748.520000", "101749.130000", "101749.740000", "101750.350000", "101750.960000", "101751.570000", "101752.180000", "101752.790000", "101753.400000", "101754.010000", "101754.620000", "101755.230000", "101755.840000", "101756.450000", "101757.060000", "101757.670000", "101758.280000", "101758.890000", "101759.500000", "101800.110000", "101800.720000", "101801.330000", "101801.940000", "101802.550000", "101803.160000", "101803.770000", "101804.380000", "101804.990000", "101805.600000", "101806.210000", "101806.820000", "101807.430000", "101808.040000", "101808.650000", "101809.260000", "101809.870000", "101810.480000", "101811.090000", "101811.700000", "101812.310000", "101812.920000", "101813.530000", "101814.140000", "101814.750000", "101815.360000", "101815.970000", "101816.580000", "101817.190000", "101817.800000", "101818.410000", "101819.020000", "101819.630000", "101820.240000", "101820.850000", "101821.460000", "101822.070000", "101822.680000", "101823.290000", "101823.900000", "101824.510000", "101825.120000", "101825.730000", "101826.340000", "101826.950000", "101827.560000", "101828.170000", "101828.780000", "101829.390000", "101830.000000", "101830.610000", "101831.220000", "101831.830000", "101832.440000", "101833.050000", "101833.660000", "101834.270000", "101834.880000", "101835.490000", "101836.100000", "101836.710000", "101837.320000", "101837.930000", "101838.540000", "101839.150000", "101839.760000", "101840.370000", "101840.980000", "101841.590000", "101842.200000"], "ContentTime": ["101352.766000", "101352.769000", "101352.771000", "101352.774000", "101352.776000", "101352.778000", "101352.781000", "101352.783000", "101352.786000", "101352.788000", "101352.790000", "101352.793000", "101352.795000", "101352.797000", "101352.800000", "101352.803000", "101352.806000", "101352.808000", "101352.810000", "101352.813000", "101352.815000", "101352.817000", "101352.820000", "101352.822000", "101352.824000", "101352.833000", "101352.836000", "101352.838000", "101352.840000", "101352.843000", "101352.845000", "101352.847000", "101352.850000", "101412.761000", "101412.764000", "101412.766000", "101412.769000", "101412.771000", "101412.773000", "101412.776000", "101412.778000", "101412.780000", "101412.783000", "101412.785000", "101412.788000", "101412.790000", "101412.792000", "101412.795000", "101412.797000", "101412.799000", "101412.802000", "101412.804000", "101412.806000", "101412.809000", "101412.811000", "101412.819000", "101412.821000", "101412.823000", "101412.826000", "101412.828000", "101412.831000", "101412.833000", "101412.835000", "101412.838000", "101412.840000", "101412.842000", "101432.762000", "101432.765000", "101432.767000", "101432.769000", "101432.772000", "101432.774000", "101432.776000", "101432.779000", "101432.781000", "101432.784000", "101432.786000", "101432.788000", "101432.791000", "101432.793000", "101432.795000", "101432.798000", "101432.800000", "101432.802000", "101432.805000", "101432.813000", "101432.816000", "101432.818000", "101432.820000", "101432.823000", "101432.825000", "101432.827000", "101432.830000", "101432.832000", "101432.834000", "101432.837000", "101432.839000", "101432.841000", "101432.844000", "101452.761000", "101452.764000", "101452.766000", "101452.769000", "101452.771000", "101452.773000", "101452.776000", "101452.778000", "101452.781000", "101452.783000", "101452.785000", "101452.788000", "101452.790000", "101452.792000", "101452.795000", "101452.797000", "101452.800000", "101452.802000", "101452.804000", "101452.807000", "101452.809000", "101452.811000", "101452.814000", "101452.816000", "101452.818000", "101452.821000", "101452.823000", "101452.826000", "101452.828000", "101452.830000", "101452.833000", "101452.835000", "101452.837000", "101512.761000", "101512.764000", "101512.766000", "101512.769000", "101512.771000", "101512.785000", "101512.788000", "101512.790000", "101512.793000", "101512.795000", "101512.797000", "101512.800000", "101512.802000", "101512.805000", "101512.807000", "101512.809000", "101512.812000", "101512.815000", "101512.817000", "101512.820000", "101512.822000", "101512.824000", "101512.827000", "101512.829000", "101512.831000", "101512.834000", "101512.836000", "101512.839000", "101512.841000", "101512.843000", "101512.846000", "101512.848000", "101532.761000", "101532.764000", "101532.766000", "101532.768000", "101532.771000", "101532.773000", "101532.775000", "101532.778000", "101532.780000", "101532.783000", "101532.785000", "101532.787000", "101532.790000", "101532.792000", "101532.794000", "101532.797000", "101532.799000", "101532.802000", "101532.804000", "101532.806000", "101532.809000", "101532.811000", "101532.814000", "101532.816000", "101532.819000", "101532.821000", "101532.823000", "101532.826000", "101532.828000", "101532.830000", "101532.833000", "101532.835000", "101532.838000", "101552.761000", "101552.764000", "101552.766000", "101552.768000", "101552.771000", "101552.773000", "101552.776000", "101552.778000", "101552.780000", "101552.783000", "101552.785000", "101552.787000", "101552.790000", "101552.792000", "101552.794000", "101552.797000", "101552.799000", "101552.801000", "101552.804000", "101552.806000", "101552.809000", "101552.811000", "101552.813000", "101552.816000", "101552.818000", "101552.820000", "101552.823000", "101552.825000", "101552.827000", "101552.830000", "101552.832000", "101552.835000", "101552.837000", "101612.761000", "101612.764000", "101612.766000", "101612.769000", "101612.771000", "101612.773000", "101612.776000", "101612.778000", "101612.781000", "101612.783000", "101612.785000", "101612.788000", "101612.790000", "101612.793000", "101612.795000", "101612.797000", "101612.800000", "101612.802000", "101612.805000", "101612.807000", "101612.809000", "101612.812000", "101612.814000", "101612.816000", "101612.819000", "101612.821000", "101612.823000", "101612.826000", "101612.828000", "101612.830000", "101612.833000", "101612.835000", "101612.838000", "101632.761000", "101632.764000", "101632.766000", "101632.768000", "101632.771000", "101632.773000", "101632.776000", "101632.778000", "101632.781000", "101632.783000", "101632.786000", "101632.788000", "101632.791000", "101632.793000", "101632.795000", "101632.798000", "101632.800000", "101632.802000", "101632.805000", "101632.807000", "101632.810000", "101632.812000", "101632.814000", "101632.817000", "101632.819000", "101632.821000", "101632.824000", "101632.826000", "101632.828000", "101632.831000", "101632.833000", "101632.836000", "101652.762000", "101652.765000", "101652.767000", "101652.770000", "101652.772000", "101652.774000", "101652.777000", "101652.779000", "101652.782000", "101652.784000", "101652.786000", "101652.789000", "101652.791000", "101652.793000", "101652.796000", "101652.798000", "101652.800000", "101652.803000", "101652.805000", "101652.808000", "101652.810000", "101652.812000", "101652.815000", "101652.817000", "101652.820000", "101652.822000", "101652.824000", "101652.827000", "101652.829000", "101652.831000", "101652.834000", "101652.836000", "101652.839000", "101712.761000", "101712.764000", "101712.766000", "101712.769000", "101712.771000", "101712.773000", "101712.776000", "101712.778000", "101712.780000", "101712.783000", "101712.785000", "101712.787000", "101712.790000", "101712.792000", "101712.794000", "101712.797000", "101712.799000", "101712.802000", "101712.804000", "101712.806000", "101712.809000", "101712.811000", "101712.813000", "101712.816000", "101712.818000", "101712.820000", "101712.823000", "101712.825000", "101712.828000", "101712.830000", "101712.832000", "101712.835000", "101712.837000", "101732.761000", "101732.764000", "101732.766000", "101732.768000", "101732.771000", "101732.773000", "101732.776000", "101732.778000", "101732.780000", "101732.791000", "101732.793000", "101732.795000", "101732.798000", "101732.800000", "101732.803000", "101732.805000", "101732.807000", "101732.810000", "101732.812000", "101732.814000", "101732.817000", "101732.819000", "101732.822000", "101732.824000", "101732.826000", "101732.829000", "101732.831000", "101732.833000", "101732.836000", "101732.838000", "101732.840000", "101732.843000", "101732.845000", "101752.761000", "101752.764000", "101752.766000", "101752.769000", "101752.771000", "101752.773000", "101752.776000", "101752.778000", "101752.781000", "101752.783000", "101752.785000", "101752.788000", "101752.790000", "101752.792000", "101752.795000", "101752.797000", "101752.799000", "101752.802000", "101752.814000", "101752.817000", "101752.819000", "101752.821000", "101752.824000", "101752.826000", "101752.828000", "101752.831000", "101752.833000", "101752.835000", "101752.838000", "101752.840000", "101752.842000", "101752.845000", "101752.847000", "101812.761000", "101812.764000", "101812.766000", "101812.768000", "101812.771000", "101812.773000", "101812.776000", "101812.778000", "101812.780000", "101812.783000", "101812.785000", "101812.787000", "101812.790000", "101812.792000", "101812.795000", "101812.797000", "101812.799000", "101812.802000", "101812.804000", "101812.806000", "101812.809000", "101812.811000", "101812.814000", "101812.816000", "101812.818000", "101812.821000", "101812.824000", "101812.827000", "101812.829000", "101812.832000", "101812.834000", "101812.836000", "101832.761000", "101832.764000", "101832.766000", "101832.769000", "101832.771000", "101832.773000", "101832.776000", "101832.778000", "101832.780000", "101832.783000", "101832.785000", "101832.787000", "101832.790000", "101832.793000", "101832.795000", "101832.798000", "101832.800000", "101832.802000", "101832.805000", "101832.807000", "101832.810000", "101832.812000", "101832.814000", "101832.817000", "101832.819000", "101832.821000", "101832.824000", "101832.826000", "101832.829000", "101832.831000", "101832.833000", "101832.836000", "101832.838000", "101843.289000", "101843.291000", "101843.294000", "101843.296000", "101843.299000", "101843.301000", "101843.303000", "101843.306000", "101843.308000", "101843.311000", "101843.313000", "101843.315000", "101843.318000", "101843.320000", "101843.323000", "101843.325000", "101843.327000", "101843.330000"], "InstanceCreationTime": ["101352.766000", "101352.769000", "101352.771000", "101352.774000", "101352.776000", "101352.778000", "101352.781000", "101352.783000", "101352.786000", "101352.788000", "101352.790000", "101352.793000", "101352.795000", "101352.797000", "101352.800000", "101352.803000", "101352.806000", "101352.808000", "101352.810000", "101352.813000", "101352.815000", "101352.817000", "101352.820000", "101352.822000", "101352.824000", "101352.833000", "101352.836000", "101352.838000", "101352.840000", "101352.843000", "101352.845000", "101352.847000", "101352.850000", "101412.761000", "101412.764000", "101412.766000", "101412.769000", "101412.771000", "101412.773000", "101412.776000", "101412.778000", "101412.780000", "101412.783000", "101412.785000", "101412.788000", "101412.790000", "101412.792000", "101412.795000", "101412.797000", "101412.799000", "101412.802000", "101412.804000", "101412.806000", "101412.809000", "101412.811000", "101412.819000", "101412.821000", "101412.823000", "101412.826000", "101412.828000", "101412.831000", "101412.833000", "101412.835000", "101412.838000", "101412.840000", "101412.842000", "101432.762000", "101432.765000", "101432.767000", "101432.769000", "101432.772000", "101432.774000", "101432.776000", "101432.779000", "101432.781000", "101432.784000", "101432.786000", "101432.788000", "101432.791000", "101432.793000", "101432.795000", "101432.798000", "101432.800000", "101432.802000", "101432.805000", "101432.813000", "101432.816000", "101432.818000", "101432.820000", "101432.823000", "101432.825000", "101432.827000", "101432.830000", "101432.832000", "101432.834000", "101432.837000", "101432.839000", "101432.841000", "101432.844000", "101452.761000", "101452.764000", "101452.766000", "101452.769000", "101452.771000", "101452.773000", "101452.776000", "101452.778000", "101452.781000", "101452.783000", "101452.785000", "101452.788000", "101452.790000", "101452.792000", "101452.795000", "101452.797000", "101452.800000", "101452.802000", "101452.804000", "101452.807000", "101452.809000", "101452.811000", "101452.814000", "101452.816000", "101452.818000", "101452.821000", "101452.823000", "101452.826000", "101452.828000", "101452.830000", "101452.833000", "101452.835000", "101452.837000", "101512.761000", "101512.764000", "101512.766000", "101512.769000", "101512.771000", "101512.785000", "101512.788000", "101512.790000", "101512.793000", "101512.795000", "101512.797000", "101512.800000", "101512.802000", "101512.805000", "101512.807000", "101512.809000", "101512.812000", "101512.815000", "101512.817000", "101512.820000", "101512.822000", "101512.824000", "101512.827000", "101512.829000", "101512.831000", "101512.834000", "101512.836000", "101512.839000", "101512.841000", "101512.843000", "101512.846000", "101512.848000", "101532.761000", "101532.764000", "101532.766000", "101532.768000", "101532.771000", "101532.773000", "101532.775000", "101532.778000", "101532.780000", "101532.783000", "101532.785000", "101532.787000", "101532.790000", "101532.792000", "101532.794000", "101532.797000", "101532.799000", "101532.802000", "101532.804000", "101532.806000", "101532.809000", "101532.811000", "101532.814000", "101532.816000", "101532.819000", "101532.821000", "101532.823000", "101532.826000", "101532.828000", "101532.830000", "101532.833000", "101532.835000", "101532.838000", "101552.761000", "101552.764000", "101552.766000", "101552.768000", "101552.771000", "101552.773000", "101552.776000", "101552.778000", "101552.780000", "101552.783000", "101552.785000", "101552.787000", "101552.790000", "101552.792000", "101552.794000", "101552.797000", "101552.799000", "101552.801000", "101552.804000", "101552.806000", "101552.809000", "101552.811000", "101552.813000", "101552.816000", "101552.818000", "101552.820000", "101552.823000", "101552.825000", "101552.827000", "101552.830000", "101552.832000", "101552.835000", "101552.837000", "101612.761000", "101612.764000", "101612.766000", "101612.769000", "101612.771000", "101612.773000", "101612.776000", "101612.778000", "101612.781000", "101612.783000", "101612.785000", "101612.788000", "101612.790000", "101612.793000", "101612.795000", "101612.797000", "101612.800000", "101612.802000", "101612.805000", "101612.807000", "101612.809000", "101612.812000", "101612.814000", "101612.816000", "101612.819000", "101612.821000", "101612.823000", "101612.826000", "101612.828000", "101612.830000", "101612.833000", "101612.835000", "101612.838000", "101632.761000", "101632.764000", "101632.766000", "101632.768000", "101632.771000", "101632.773000", "101632.776000", "101632.778000", "101632.781000", "101632.783000", "101632.786000", "101632.788000", "101632.791000", "101632.793000", "101632.795000", "101632.798000", "101632.800000", "101632.802000", "101632.805000", "101632.807000", "101632.810000", "101632.812000", "101632.814000", "101632.817000", "101632.819000", "101632.821000", "101632.824000", "101632.826000", "101632.828000", "101632.831000", "101632.833000", "101632.836000", "101652.762000", "101652.765000", "101652.767000", "101652.770000", "101652.772000", "101652.774000", "101652.777000", "101652.779000", "101652.782000", "101652.784000", "101652.786000", "101652.789000", "101652.791000", "101652.793000", "101652.796000", "101652.798000", "101652.800000", "101652.803000", "101652.805000", "101652.808000", "101652.810000", "101652.812000", "101652.815000", "101652.817000", "101652.820000", "101652.822000", "101652.824000", "101652.827000", "101652.829000", "101652.831000", "101652.834000", "101652.836000", "101652.839000", "101712.761000", "101712.7