{"AcquisitionMatrixPE": 64, "AcquisitionNumber": 1, "AcquisitionTime": "11:09:2.715000", "BandwidthPerPixelPhaseEncode": 28.935, "BaseResolution": 64, "BodyPartExamined": "BRAIN", "CoilCombinationMethod": "Sum of Squares", "ConsistencyInfo": "N4_VE11E_LATEST_20181129", "ConversionSoftware": "dcm2niix", "ConversionSoftwareVersion": "v1.0.20230411", "DerivedVendorReportedEchoSpacing": 0.000540003, "DeviceSerialNumber": "166182", "DwellTime": 3.4e-06, "EchoTime": 0.032, "EchoTrainLength": 64, "EffectiveEchoSpacing": 0.000540003, "FlipAngle": 40, "HeudiconvVersion": "0.13.1", "ImageOrientationPatientDICOM": [0.999951, 0.00735203, -0.00664921, -0.00698106, 0.998506, 0.0541922], "ImageOrientationText": "Tra>Cor(3.1)>Sag(-0.4)", "ImageType": ["ORIGINAL", "PRIMARY", "M", "ND", "NORM", "MOSAIC"], "ImagingFrequency": 123.257025, "InPlanePhaseEncodingDirectionDICOM": "COL", "InstitutionAddress": "PEARSE STREET .,City,District,IE,D2", "InstitutionName": "TCIN", "InstitutionalDepartmentName": "MRI", "MRAcquisitionType": "2D", "MagneticFieldStrength": 3, "Manufacturer": "Siemens", "ManufacturersModelName": "Prisma", "Modality": "MR", "MultibandAccelerationFactor": 4, "NonlinearGradientCorrection": false, "PartialFourier": 1, "PatientPosition": "HFS", "PercentPhaseFOV": 100, "PercentSampling": 100, "PhaseEncodingDirection": "j-", "PhaseEncodingSteps": 64, "PhaseResolution": 1, "PixelBandwidth": 2300, "ProcedureStepDescription": "Rhodri^Head BOLD", "ProtocolName": "cmrr_mbep2d_Pictures_AP_RDS", "PulseSequenceDetails": "%SiemensSeq%\\ep2d_bold", "ReceiveCoilActiveElements": "HC2,4,6,7;SC", "ReceiveCoilName": "SpecialPurpose_4", "ReconMatrixPE": 64, "RefLinesPE": 12, "RepetitionTime": 0.61, "SAR": 0.279816, "ScanOptions": "FS", "ScanningSequence": "EP", "SequenceName": "*epfid2d1_64", "SequenceVariant": "SK", "SeriesDescription": "cmrr_mbep2d_Pictures_AP_RDS", "SeriesNumber": 8, "ShimSetting": [-3669, -7381, 3871, 965, -219, 79, 93, -73], "SliceThickness": 3, "SliceTiming": [0.26, 0, 0.3275, 0.065, 0.3925, 0.13, 0.4575, 0.195, 0.5225, 0.26, 0, 0.3275, 0.065, 0.3925, 0.13, 0.4575, 0.195, 0.5225, 0.26, 0, 0.3275, 0.065, 0.3925, 0.13, 0.4575, 0.195, 0.5225, 0.26, 0, 0.3275, 0.065, 0.3925, 0.13, 0.4575, 0.195, 0.5225], "SoftwareVersions": "syngo MR E11", "SpacingBetweenSlices": 3.3, "StationName": "AWP166182", "TaskName": "pictures", "TotalReadoutTime": 0.0340202, "TxRefAmp": 233.83, "dcmmeta_affine": [[-2.9998526573181152, -0.020943166688084602, -0.02322440966963768, 97.49482727050781], [-0.02205609157681465, 2.995518445968628, 0.17867232859134674, -104.57659912109375], [-0.019947629421949387, -0.1625766158103943, 3.2950778007507324, -92.80815887451172], [0.0, 0.0, 0.0, 1.0]], "dcmmeta_reorient_transform": [[0.0, -1.0, 0.0, 63.0], [1.0, 0.0, 0.0, 0.0], [0.0, 0.0, 1.0, 0.0], [0.0, 0.0, 0.0, 1.0]], "dcmmeta_shape": [64, 64, 36, 265], "dcmmeta_slice_dim": 2, "dcmmeta_version": 0.6, "global": {"const": {"AcquisitionMatrix": [64, 0, 0, 64], "AngioFlag": "N", "BitsAllocated": 16, "BitsStored": 12, "BodyPartExamined": "BRAIN", "Columns": 384, "EchoNumbers": 1, "EchoTime": 32.0, "EchoTrainLength": 64, "FlipAngle": 40.0, "HighBit": 11, "ImageOrientationPatient": [0.99995086661889, 0.0073520307664, -0.006649209858, -0.0069810553508, 0.99850611892794, 0.05419220727783], "ImagePositionPatient": [-572.80091732451, -566.95296758667, -125.87112515641], "ImageType": ["ORIGINAL", "PRIMARY", "M", "ND", "NORM", "MOSAIC"], "ImagedNucleus": "1H", "ImagingFrequency": 123.257025, "InPlanePhaseEncodingDirection": "COL", "MRAcquisitionType": "2D", "MagneticFieldStrength": 3.0, "Manufacturer": "SIEMENS", "ManufacturerModelName": "Prisma", "Modality": "MR", "NumberOfAverages": 1.0, "NumberOfPhaseEncodingSteps": 64, "PercentPhaseFieldOfView": 100.0, "PercentSampling": 100.0, "PerformedProcedureStepStartTime": "105457.613000", "PhotometricInterpretation": "MONOCHROME2", "PixelBandwidth": 2300.0, "PixelRepresentation": 0, "PixelSpacing": [3.0, 3.0], "ProtocolName": "cmrr_mbep2d_Pictures_AP_RDS", "RepetitionTime": 610.0, "Rows": 384, "SAR": 0.27981643890089, "SamplesPerPixel": 1, "ScanOptions": "FS", "ScanningSequence": "EP", "SequenceName": "*epfid2d1_64", "SequenceVariant": "SK", "SeriesDescription": "cmrr_mbep2d_Pictures_AP_RDS", "SeriesNumber": 8, "SeriesTime": "110919.288000", "SliceLocation": -99.017968455596, "SliceThickness": 3.0, "SmallestImagePixelValue": 0, "SoftwareVersions": "syngo MR E11", "SpacingBetweenSlices": 3.3000001200804, "SpecificCharacterSet": "ISO_IR 100", "StudyID": "2", "StudyTime": "105457.546000", "TransmitCoilName": "Body", "VariableFlipAngleFlag": "N", "WindowCenterWidthExplanation": "Algo1"}, "slices": {}}, "time": {"samples": {"AcquisitionNumber": [1, 2, 3, 4, 5, 6, 7, 8, 9, 10, 11, 12, 13, 14, 15, 16, 17, 18, 19, 20, 21, 22, 23, 24, 25, 26, 27, 28, 29, 30, 31, 32, 33, 34, 35, 36, 37, 38, 39, 40, 41, 42, 43, 44, 45, 46, 47, 48, 49, 50, 51, 52, 53, 54, 55, 56, 57, 58, 59, 60, 61, 62, 63, 64, 65, 66, 67, 68, 69, 70, 71, 72, 73, 74, 75, 76, 77, 78, 79, 80, 81, 82, 83, 84, 85, 86, 87, 88, 89, 90, 91, 92, 93, 94, 95, 96, 97, 98, 99, 100, 101, 102, 103, 104, 105, 106, 107, 108, 109, 110, 111, 112, 113, 114, 115, 116, 117, 118, 119, 120, 121, 122, 123, 124, 125, 126, 127, 128, 129, 130, 131, 132, 133, 134, 135, 136, 137, 138, 139, 140, 141, 142, 143, 144, 145, 146, 147, 148, 149, 150, 151, 152, 153, 154, 155, 156, 157, 158, 159, 160, 161, 162, 163, 164, 165, 166, 167, 168, 169, 170, 171, 172, 173, 174, 175, 176, 177, 178, 179, 180, 181, 182, 183, 184, 185, 186, 187, 188, 189, 190, 191, 192, 193, 194, 195, 196, 197, 198, 199, 200, 201, 202, 203, 204, 205, 206, 207, 208, 209, 210, 211, 212, 213, 214, 215, 216, 217, 218, 219, 220, 221, 222, 223, 224, 225, 226, 227, 228, 229, 230, 231, 232, 233, 234, 235, 236, 237, 238, 239, 240, 241, 242, 243, 244, 245, 246, 247, 248, 249, 250, 251, 252, 253, 254, 255, 256, 257, 258, 259, 260, 261, 262, 263, 264, 265], "AcquisitionTime": ["110902.715000", "110903.325000", "110903.935000", "110904.545000", "110905.155000", "110905.765000", "110906.375000", "110906.985000", "110907.595000", "110908.205000", "110908.815000", "110909.425000", "110910.035000", "110910.645000", "110911.255000", "110911.865000", "110912.475000", "110913.085000", "110913.695000", "110914.305000", "110914.915000", "110915.525000", "110916.135000", "110916.745000", "110917.355000", "110917.965000", "110918.575000", "110919.185000", "110919.795000", "110920.405000", "110921.015000", "110921.625000", "110922.235000", "110922.845000", "110923.455000", "110924.065000", "110924.675000", "110925.285000", "110925.895000", "110926.505000", "110927.115000", "110927.725000", "110928.335000", "110928.945000", "110929.555000", "110930.165000", "110930.775000", "110931.385000", "110931.995000", "110932.605000", "110933.215000", "110933.825000", "110934.435000", "110935.045000", "110935.655000", "110936.265000", "110936.875000", "110937.485000", "110938.095000", "110938.705000", "110939.315000", "110939.925000", "110940.535000", "110941.145000", "110941.755000", "110942.365000", "110942.975000", "110943.585000", "110944.195000", "110944.805000", "110945.415000", "110946.025000", "110946.635000", "110947.245000", "110947.855000", "110948.465000", "110949.075000", "110949.685000", "110950.295000", "110950.905000", "110951.515000", "110952.125000", "110952.735000", "110953.345000", "110953.955000", "110954.565000", "110955.175000", "110955.785000", "110956.395000", "110957.005000", "110957.615000", "110958.225000", "110958.835000", "110959.445000", "111000.055000", "111000.665000", "111001.275000", "111001.885000", "111002.495000", "111003.105000", "111003.715000", "111004.325000", "111004.935000", "111005.545000", "111006.155000", "111006.765000", "111007.375000", "111007.985000", "111008.595000", "111009.205000", "111009.815000", "111010.425000", "111011.035000", "111011.645000", "111012.255000", "111012.865000", "111013.475000", "111014.085000", "111014.695000", "111015.305000", "111015.915000", "111016.525000", "111017.135000", "111017.745000", "111018.355000", "111018.965000", "111019.575000", "111020.185000", "111020.795000", "111021.405000", "111022.015000", "111022.625000", "111023.235000", "111023.845000", "111024.455000", "111025.065000", "111025.675000", "111026.285000", "111026.895000", "111027.505000", "111028.115000", "111028.725000", "111029.335000", "111029.945000", "111030.555000", "111031.165000", "111031.775000", "111032.385000", "111032.995000", "111033.605000", "111034.215000", "111034.825000", "111035.435000", "111036.045000", "111036.655000", "111037.265000", "111037.875000", "111038.485000", "111039.095000", "111039.705000", "111040.315000", "111040.925000", "111041.535000", "111042.145000", "111042.755000", "111043.365000", "111043.975000", "111044.585000", "111045.195000", "111045.805000", "111046.415000", "111047.025000", "111047.635000", "111048.245000", "111048.855000", "111049.465000", "111050.075000", "111050.685000", "111051.295000", "111051.905000", "111052.515000", "111053.125000", "111053.735000", "111054.345000", "111054.955000", "111055.565000", "111056.175000", "111056.785000", "111057.395000", "111058.005000", "111058.615000", "111059.225000", "111059.835000", "111100.445000", "111101.055000", "111101.665000", "111102.275000", "111102.885000", "111103.495000", "111104.105000", "111104.715000", "111105.325000", "111105.935000", "111106.545000", "111107.155000", "111107.765000", "111108.375000", "111108.985000", "111109.595000", "111110.205000", "111110.815000", "111111.425000", "111112.035000", "111112.645000", "111113.255000", "111113.865000", "111114.475000", "111115.085000", "111115.695000", "111116.305000", "111116.915000", "111117.525000", "111118.135000", "111118.745000", "111119.355000", "111119.965000", "111120.575000", "111121.185000", "111121.795000", "111122.405000", "111123.015000", "111123.625000", "111124.235000", "111124.845000", "111125.455000", "111126.065000", "111126.675000", "111127.285000", "111127.895000", "111128.505000", "111129.115000", "111129.725000", "111130.335000", "111130.945000", "111131.555000", "111132.165000", "111132.775000", "111133.385000", "111133.995000", "111134.605000", "111135.215000", "111135.825000", "111136.435000", "111137.045000", "111137.655000", "111138.265000", "111138.875000", "111139.485000", "111140.095000", "111140.705000", "111141.315000", "111141.925000", "111142.535000", "111143.145000", "111143.755000"], "ContentTime": ["110919.292000", "110919.295000", "110919.297000", "110919.300000", "110919.302000", "110919.305000", "110919.307000", "110919.309000", "110919.312000", "110919.314000", "110919.316000", "110919.319000", "110919.321000", "110919.328000", "110919.331000", "110919.333000", "110919.336000", "110919.338000", "110919.340000", "110919.348000", "110919.351000", "110919.353000", "110919.356000", "110919.358000", "110919.361000", "110919.363000", "110939.288000", "110939.291000", "110939.293000", "110939.303000", "110939.305000", "110939.308000", "110939.310000", "110939.313000", "110939.315000", "110939.318000", "110939.320000", "110939.323000", "110939.325000", "110939.328000", "110939.330000", "110939.332000", "110939.335000", "110939.337000", "110939.340000", "110939.342000", "110939.345000", "110939.347000", "110939.350000", "110939.352000", "110939.355000", "110939.357000", "110939.359000", "110939.362000", "110939.364000", "110939.367000", "110939.369000", "110939.372000", "110959.288000", "110959.291000", "110959.293000", "110959.296000", "110959.298000", "110959.301000", "110959.309000", "110959.312000", "110959.314000", "110959.317000", "110959.319000", "110959.321000", "110959.324000", "110959.326000", "110959.329000", "110959.331000", "110959.334000", "110959.336000", "110959.338000", "110959.341000", "110959.343000", "110959.346000", "110959.348000", "110959.350000", "110959.353000", "110959.355000", "110959.358000", "110959.360000", "110959.362000", "110959.365000", "110959.367000", "110959.370000", "110959.372000", "111019.288000", "111019.291000", "111019.293000", "111019.296000", "111019.298000", "111019.301000", "111019.303000", "111019.306000", "111019.308000", "111019.310000", "111019.313000", "111019.315000", "111019.318000", "111019.320000", "111019.323000", "111019.325000", "111019.327000", "111019.330000", "111019.332000", "111019.335000", "111019.337000", "111019.340000", "111019.342000", "111019.344000", "111019.347000", "111019.349000", "111019.352000", "111019.354000", "111019.356000", "111019.359000", "111019.361000", "111019.364000", "111019.366000", "111039.288000", "111039.291000", "111039.293000", "111039.296000", "111039.298000", "111039.300000", "111039.303000", "111039.305000", "111039.308000", "111039.310000", "111039.313000", "111039.315000", "111039.317000", "111039.320000", "111039.322000", "111039.325000", "111039.327000", "111039.329000", "111039.332000", "111039.334000", "111039.337000", "111039.339000", "111039.341000", "111039.344000", "111039.346000", "111039.349000", "111039.351000", "111039.354000", "111039.356000", "111039.358000", "111039.361000", "111039.363000", "111039.366000", "111059.288000", "111059.291000", "111059.293000", "111059.296000", "111059.299000", "111059.301000", "111059.303000", "111059.306000", "111059.308000", "111059.311000", "111059.313000", "111059.315000", "111059.318000", "111059.321000", "111059.323000", "111059.325000", "111059.328000", "111059.330000", "111059.333000", "111059.335000", "111059.338000", "111059.340000", "111059.342000", "111059.345000", "111059.347000", "111059.350000", "111059.352000", "111059.354000", "111059.357000", "111059.359000", "111059.362000", "111059.364000", "111059.367000", "111119.287000", "111119.290000", "111119.292000", "111119.295000", "111119.298000", "111119.301000", "111119.303000", "111119.306000", "111119.308000", "111119.311000", "111119.313000", "111119.316000", "111119.318000", "111119.320000", "111119.323000", "111119.325000", "111119.328000", "111119.330000", "111119.343000", "111119.345000", "111119.348000", "111119.350000", "111119.353000", "111119.355000", "111119.357000", "111119.360000", "111119.362000", "111119.365000", "111119.368000", "111119.371000", "111119.373000", "111119.376000", "111139.287000", "111139.290000", "111139.292000", "111139.295000", "111139.297000", "111139.300000", "111139.302000", "111139.305000", "111139.307000", "111139.310000", "111139.312000", "111139.314000", "111139.317000", "111139.319000", "111139.322000", "111139.324000", "111139.326000", "111139.329000", "111139.331000", "111139.334000", "111139.336000", "111139.338000", "111139.342000", "111139.344000", "111139.347000", "111139.349000", "111139.352000", "111139.354000", "111139.356000", "111139.359000", "111139.361000", "111139.364000", "111139.366000", "111145.854000", "111145.856000", "111145.859000", "111145.861000", "111145.864000", "111145.866000", "111145.868000", "111145.871000", "111145.873000", "111145.876000"], "InstanceCreationTime": ["110919.292000", "110919.295000", "110919.297000", "110919.300000", "110919.302000", "110919.305000", "110919.307000", "110919.309000", "110919.312000", "110919.314000", "110919.316000", "110919.319000", "110919.321000", "110919.328000", "110919.331000", "110919.333000", "110919.336000", "110919.338000", "110919.340000", "110919.348000", "110919.351000", "110919.353000", "110919.356000", "110919.358000", "110919.361000", "110919.363000", "110939.288000", "110939.291000", "110939.293000", "110939.303000", "110939.305000", "110939.308000", "110939.310000", "110939.313000", "110939.315000", "110939.318000", "110939.320000", "110939.323000", "110939.325000", "110939.328000", "110939.330000", "110939.332000", "110939.335000", "110939.337000", "110939.340000", "110939.342000", "110939.345000", "110939.347000", "110939.350000", "110939.352000", "110939.355000", "110939.357000", "110939.359000", "110939.362000", "110939.364000", "110939.367000", "110939.369000", "110939.372000", "110959.288000", "110959.291000", "110959.293000", "110959.296000", "110959.298000", "110959.301000", "110959.309000", "110959.312000", "110959.314000", "110959.317000", "110959.319000", "110959.321000", "110959.324000", "110959.326000", "110959.329000", "110959.331000", "110959.334000", "110959.336000", "110959.338000", "110959.341000", "110959.343000", "110959.346000", "110959.348000", "110959.350000", "110959.353000", "110959.355000", "110959.358000", "110959.360000", "110959.362000", "110959.365000", "110959.367000", "110959.370000", "110959.372000", "111019.288000", "111019.291000", "111019.293000", "111019.296000", "111019.298000", "111019.301000", "111019.303000", "111019.306000", "111019.308000", "111019.310000", "111019.313000", "111019.315000", "111019.318000", "111019.320000", "111019.323000", "111019.325000", "111019.327000", "111019.330000", "111019.332000", "111019.335000", "111019.337000", "111019.340000", "111019.342000", "111019.344000", "111019.347000", "111019.349000", "111019.352000", "111019.354000", "111019.356000", "111019.359000", "111019.361000", "111019.364000", "111019.366000", "111039.288000", "111039.291000", "111039.293000", "111039.296000", "111039.298000", "111039.300000", "111039.303000", "111039.305000", "111039.308000", "111039.310000", "111039.313000", "111039.315000", "111039.317000", "111039.320000", "111039.322000", "111039.325000", "111039.327000", "111039.329000", "111039.332000", "111039.334000", "111039.337000", "111039.339000", "111039.341000", "111039.344000", "111039.346000", "111039.349000", "111039.351000", "111039.354000", "111039.356000", "111039.358000", "111039.361000", "111039.363000", "111039.366000", "111059.288000", "111059.291000", "111059.293000", "111059.296000", "111059.299000", "111059.301000", "111059.303000", "111059.306000", "111059.308000", "111059.311000", "111059.313000", "111059.315000", "111059.318000", "111059.321000", "111059.323000", "111059.325000", "111059.328000", "111059.330000", "111059.333000", "111059.335000", "111059.338000", "111059.340000", "111059.342000", "111059.345000", "111059.347000", "111059.350000", "111059.352000", "111059.354000", "111059.357000", "111059.359000", "111059.362000", "111059.364000", "111059.367000", "111119.287000", "111119.290000", "111119.292000", "111119.295000", "111119.298000", "111119.301000", "111119.303000", "111119.306000", "111119.308000", "111119.311000", "111119.313000", "111119.316000", "111119.318000", "111119.320000", "111119.323000", "111119.325000", "111119.328000", "111119.330000", "111119.343000", "111119.345000", "111119.348000", "111119.350000", "111119.353000", "111119.355000", "111119.357000", "111119.360000", "111119.362000", "111119.365000", "111119.368000", "111119.371000", "111119.373000", "111119.376000", "111139.287000", "111139.290000", "111139.292000", "111139.295000", "111139.297000", "111139.300000", "111139.302000", "111139.305000", "111139.307000", "111139.310000", "111139.312000", "111139.314000", "111139.317000", "111139.319000", "111139.322000", "111139.324000", "111139.326000", "111139.329000", "111139.331000", "111139.334000", "111139.336000", "111139.338000", "111139.342000", "111139.344000", "111139.347000", "111139.349000", "111139.352000", "111139.354000", "111139.356000", "111139.359000", "111139.361000", "111139.364000", "111139.366000", "111145.854000", "111145.856000", "111145.859000", "111145.861000", "111145.864000", "111145.866000", "111145.868000", "111145.871000", "111145.873000", "111145.876000"], "InstanceNumber": [1, 2, 3, 4, 5, 6, 7, 8, 9, 10, 11, 12, 13, 14, 15, 16, 17, 18, 19, 20, 21, 22, 23, 24, 25, 26, 27, 28, 29, 30, 31, 32, 33, 34, 35, 36, 37, 38, 39, 40, 41, 42, 43, 44, 45, 46, 47, 48, 49, 50, 51, 52, 53, 54, 55, 56, 57, 58, 59, 60, 61, 62, 63, 64, 65, 66, 67, 68, 69, 70, 71, 72, 73, 74, 75, 76, 77, 78, 79, 80, 81, 82, 83, 84, 85, 86, 87, 88, 89, 90, 91, 92, 93, 94, 95, 96, 97, 98, 99, 100, 101, 102, 103, 104, 105, 106, 107, 108, 109, 110, 111, 112, 113, 114, 115, 116, 117, 118, 119, 120, 121, 122, 123, 124, 125, 126, 127, 128, 129, 130, 131, 132, 133, 134, 135, 136, 137, 138, 139, 140, 141, 142, 143, 144, 145, 146, 147, 148, 149, 150, 151, 152, 153, 154, 155, 156, 157, 158, 159, 160, 161, 162, 163, 164, 165, 166, 167, 168, 169, 170, 171, 172, 173, 174, 175, 176, 177, 178, 179, 180, 181, 182, 183, 184, 185, 186, 187, 188, 189, 190, 191, 192, 193, 194, 195, 196, 197, 198, 199, 200, 201, 202, 203, 204, 205, 206, 207, 208, 209, 210, 211, 212, 213, 214, 215, 216, 217, 218, 219, 220, 221, 222, 223, 224, 225, 226, 227, 228, 229, 230, 231, 232, 233, 234, 235, 236, 237, 238, 239, 240, 241, 242, 243, 244, 245, 246, 247, 248, 249, 250, 251, 252, 253, 254, 255, 256, 257, 258, 259, 260, 261, 262, 263, 264, 265], "LargestImagePixelValue": [544, 494, 478, 519, 480, 477, 488, 476, 490, 499, 499, 488, 489, 496, 493, 493, 493, 494, 493, 498, 494, 509, 500, 495, 495, 489, 490, 492, 491, 495, 490, 494, 492, 494, 485, 533, 516, 503, 503, 492, 490, 486, 490, 500, 476, 510, 516, 489, 475, 504, 506, 521, 496, 499, 503, 498, 499, 519, 497, 497, 486, 494, 485, 485, 513, 483, 500, 481, 479, 476, 498, 485, 481, 505, 489, 488, 487, 488, 487, 492, 491, 489, 488, 490, 495, 492, 493, 493, 497, 497, 497, 492, 493, 492, 501, 496, 508, 511, 492, 496, 480, 459, 469, 488, 531, 486, 512, 496, 492, 503, 488, 481, 486, 483, 509, 489, 491, 487, 498, 477, 488, 487, 482, 481, 488, 484, 480, 474, 509, 530, 491, 497, 506, 501, 491, 484, 486, 477, 497, 507, 495, 489, 497, 491, 500, 497, 495, 500, 500, 496, 499, 490, 490, 495, 492, 494, 492, 490, 492, 493, 495, 495, 499, 494, 500, 491, 514, 502, 503, 509, 506, 498, 493, 501, 489, 516, 484, 490, 503, 478, 485, 483, 477, 467, 446, 543, 523, 505, 487, 465, 467, 462, 465, 471, 460, 468, 484, 487, 461, 471, 469, 474, 465, 469, 471, 467, 465, 464, 466, 470, 463, 442, 485, 470, 516, 487, 484, 468, 467, 470, 470, 459, 474, 451, 463, 494, 488, 461, 466, 542, 517, 483, 482, 483, 486, 476, 547, 511, 519, 488, 485, 469, 474, 473, 475, 482, 473, 472, 469, 504, 490, 463, 481, 499, 484, 483, 482, 486, 479, 473, 477, 493, 491, 480, 486], "WindowCenter": [307.0, 306.0, 298.0, 306.0, 302.0, 302.0, 301.0, 300.0, 300.0, 300.0, 301.0, 301.0, 301.0, 303.0, 302.0, 302.0, 302.0, 302.0, 301.0, 302.0, 301.0, 302.0, 300.0, 300.0, 301.0, 300.0, 301.0, 301.0, 301.0, 302.0, 301.0, 301.0, 302.0, 302.0, 300.0, 302.0, 301.0, 300.0, 301.0, 301.0, 301.0, 300.0, 301.0, 301.0, 302.0, 303.0, 303.0, 298.0, 300.0, 300.0, 302.0, 302.0, 299.0, 302.0, 303.0, 301.0, 303.0, 305.0, 301.0, 300.0, 302.0, 301.0, 294.0, 296.0, 304.0, 300.0, 302.0, 301.0, 301.0, 301.0, 300.0, 300.0, 297.0, 297.0, 297.0, 299.0, 300.0, 300.0, 300.0, 300.0, 299.0, 299.0, 300.0, 299.0, 300.0, 300.0, 301.0, 301.0, 302.0, 301.0, 302.0, 300.0, 302.0, 301.0, 301.0, 298.0, 302.0, 299.0, 297.0, 301.0, 302.0, 300.0, 300.0, 288.0, 309.0, 299.0, 302.0, 300.0, 299.0, 300.0, 302.0, 299.0, 300.0, 298.0, 301.0, 301.0, 301.0, 299.0, 300.0, 299.0, 301.0, 299.0, 299.0, 297.0, 298.0, 297.0, 293.0, 290.0, 301.0, 306.0, 302.0, 302.0, 303.0, 301.0, 300.0, 299.0, 299.0, 299.0, 298.0, 296.0, 299.0, 298.0, 301.0, 299.0, 301.0, 300.0, 300.0, 300.0, 301.0, 300.0, 300.0, 299.0, 299.0, 299.0, 299.0, 299.0, 299.0, 298.0, 298.0, 299.0, 299.0, 299.0, 301.0, 301.0, 302.0, 300.0, 303.0, 301.0, 301.0, 302.0, 302.0, 301.0, 300.0, 300.0, 300.0, 302.0, 300.0, 298.0, 305.0, 302.0, 303.0, 304.0, 300.0, 304.0, 289.0, 306.0, 308.0, 306.0, 303.0, 302.0, 303.0, 302.0, 303.0, 305.0, 301.0, 301.0, 296.0, 304.0, 300.0, 304.0, 302.0, 301.0, 299.0, 300.0, 298.0, 299.0, 299.0, 299.0, 300.0, 300.0, 300.0, 296.0, 296.0, 291.0, 307.0, 306.0, 308.0, 302.0, 304.0, 302.0, 302.0, 291.0, 302.0, 298.0, 295.0, 299.0, 296.0, 294.0, 292.0, 293.0, 304.0, 299.0, 301.0, 298.0, 295.0, 290.0, 301.0, 303.0, 301.0, 299.0, 298.0, 295.0, 297.0, 297.0, 295.0, 297.0, 297.0, 299.0, 295.0, 305.0, 299.0, 297.0, 297.0, 298.0, 299.0, 297.0, 296.0, 296.0, 297.0, 294.0, 294.0, 293.0, 294.0, 295.0, 298.0], "WindowWidth": [662.0, 660.0, 646.0, 660.0, 652.0, 653.0, 650.0, 647.0, 647.0, 648.0, 648.0, 649.0, 649.0, 653.0, 651.0, 651.0, 651.0, 651.0, 650.0, 652.0, 650.0, 651.0, 649.0, 648.0, 649.0, 649.0, 649.0, 650.0, 649.0, 651.0, 650.0, 651.0, 651.0, 651.0, 648.0, 651.0, 650.0, 648.0, 649.0, 649.0, 650.0, 647.0, 649.0, 649.0, 651.0, 653.0, 654.0, 644.0, 649.0, 647.0, 651.0, 653.0, 646.0, 651.0, 653.0, 650.0, 654.0, 658.0, 650.0, 647.0, 651.0, 649.0, 637.0, 640.0, 656.0, 648.0, 652.0, 651.0, 650.0, 651.0, 648.0, 649.0, 642.0, 642.0, 643.0, 645.0, 648.0, 648.0, 648.0, 648.0, 647.0, 645.0, 648.0, 646.0, 648.0, 647.0, 649.0, 649.0, 651.0, 650.0, 652.0, 648.0, 651.0, 650.0, 650.0, 643.0, 651.0, 645.0, 641.0, 650.0, 651.0, 647.0, 648.0, 625.0, 666.0, 647.0, 652.0, 649.0, 646.0, 648.0, 652.0, 646.0, 648.0, 644.0, 650.0, 649.0, 648.0, 647.0, 648.0, 647.0, 650.0, 646.0, 647.0, 643.0, 644.0, 642.0, 634.0, 629.0, 650.0, 660.0, 652.0, 652.0, 654.0, 650.0, 649.0, 646.0, 646.0, 646.0, 643.0, 640.0, 645.0, 644.0, 649.0, 647.0, 650.0, 648.0, 648.0, 647.0, 649.0, 647.0, 648.0, 645.0, 645.0, 645.0, 645.0, 646.0, 646.0, 645.0, 644.0, 646.0, 646.0, 646.0, 649.0, 649.0, 651.0, 648.0, 654.0, 649.0, 649.0, 651.0, 652.0, 650.0, 648.0, 648.0, 648.0, 652.0, 648.0, 644.0, 657.0, 652.0, 653.0, 655.0, 649.0, 656.0, 627.0, 661.0, 662.0, 659.0, 654.0, 651.0, 653.0, 651.0, 653.0, 656.0, 650.0, 650.0, 640.0, 655.0, 647.0, 655.0, 651.0, 649.0, 646.0, 648.0, 644.0, 645.0, 646.0, 645.0, 648.0, 647.0, 647.0, 640.0, 640.0, 631.0, 663.0, 660.0, 663.0, 652.0, 656.0, 652.0, 652.0, 630.0, 651.0, 645.0, 638.0, 645.0, 640.0, 637.0, 633.0, 635.0, 656.0, 647.0, 650.0, 645.0, 639.0, 629.0, 652.0, 653.0, 650.0, 647.0, 646.0, 640.0, 644.0, 642.0, 639.0, 643.0, 643.0, 646.0, 639.0, 658.0, 647.0, 643.0, 643.0, 644.0, 647.0, 642.0, 641.0, 641.0, 643.0, 637.0, 637.0, 635.0, 636.0, 637.0, 644.0]}, "slices": {}}, "EventTimestamp": "11-11-07"}