{"AcquisitionMatrixPE": 64, "AcquisitionNumber": 1, "AcquisitionTime": "12:27:41.055000", "BandwidthPerPixelPhaseEncode": 28.935, "BaseResolution": 64, "BodyPartExamined": "BRAIN", "CoilString": "HC2_4_6_7", "ConsistencyInfo": "N4_VE11E_LATEST_20181129", "ConversionSoftware": "dcm2niix", "ConversionSoftwareVersion": "v1.0.20190902", "DerivedVendorReportedEchoSpacing": 0.000540003, "DeviceSerialNumber": "166182", "DwellTime": 3.4e-06, "EchoTime": 0.032, "EchoTrainLength": 64, "EffectiveEchoSpacing": 0.000540003, "FlipAngle": 40, "ImageOrientationPatientDICOM": [0.999732, 0.0151976, 0.0174861, -0.0108186, 0.973668, -0.227713], "ImageType": ["ORIGINAL", "PRIMARY", "M", "ND", "NORM", "MOSAIC"], "ImagingFrequency": 123.256, "InPlanePhaseEncodingDirectionDICOM": "COL", "InstitutionAddress": "PEARSE_STREET_._City_District_IE_D2", "InstitutionName": "TCIN", "InstitutionalDepartmentName": "MRI", "MRAcquisitionType": "2D", "MagneticFieldStrength": 3, "Manufacturer": "Siemens", "ManufacturersModelName": "Prisma", "Modality": "MR", "MultibandAccelerationFactor": 4, "PartialFourier": 1, "PatientPosition": "HFS", "PercentPhaseFOV": 100, "PhaseEncodingDirection": "j-", "PhaseEncodingSteps": 64, "PhaseResolution": 1, "PixelBandwidth": 2300, "ProcedureStepDescription": "Rhodri_Head_BOLD", "ProtocolName": "cmrr_mbep2d_Pictures_AP_RDS", "PulseSequenceDetails": "%SiemensSeq%_ep2d_bold", "ReceiveCoilActiveElements": "HC2,4,6,7", "ReceiveCoilName": "HeadNeck_64", "ReconMatrixPE": 64, "RefLinesPE": 12, "RepetitionTime": 0.61, "SAR": 0.176194, "ScanOptions": "FS", "ScanningSequence": "EP", "SequenceName": "_epfid2d1_64", "SequenceVariant": "SK", "SeriesDescription": "cmrr_mbep2d_Pictures_AP_RDS", "SeriesNumber": 5, "ShimSetting": [-3615, -7435, 3816, 757, 46, 496, -136, 91], "SliceThickness": 3, "SliceTiming": [0.26, 0, 0.3275, 0.065, 0.3925, 0.13, 0.4575, 0.195, 0.5225, 0.26, 0, 0.3275, 0.065, 0.3925, 0.13, 0.4575, 0.195, 0.5225, 0.26, 0, 0.3275, 0.065, 0.3925, 0.13, 0.4575, 0.195, 0.5225, 0.26, 0, 0.3275, 0.065, 0.3925, 0.13, 0.4575, 0.195, 0.5225], "SoftwareVersions": "syngo_MR_E11", "SpacingBetweenSlices": 3.3, "StationName": "AWP166182", "TaskName": "pictures", "TotalReadoutTime": 0.0340202, "TxRefAmp": 245.342, "dcmmeta_affine": [[-2.999194860458374, -0.032455675303936005, 0.06760484725236893, 95.86261749267578], [-0.045592937618494034, 2.921004295349121, -0.7506283521652222, -82.8227310180664], [0.05245814844965935, 0.6831402778625488, 3.212785005569458, -134.1290740966797], [0.0, 0.0, 0.0, 1.0]], "dcmmeta_reorient_transform": [[0.0, -1.0, 0.0, 63.0], [1.0, 0.0, 0.0, 0.0], [0.0, 0.0, 1.0, 0.0], [0.0, 0.0, 0.0, 1.0]], "dcmmeta_shape": [64, 64, 36, 260], "dcmmeta_slice_dim": 2, "dcmmeta_version": 0.6, "global": {"const": {"AcquisitionMatrix": [64, 0, 0, 64], "AngioFlag": "N", "BitsAllocated": 16, "BitsStored": 12, "BodyPartExamined": "BRAIN", "Columns": 384, "EchoNumbers": 1, "EchoTime": 32.0, "EchoTrainLength": 64, "FlipAngle": 40.0, "HighBit": 11, "ImageOrientationPatient": [0.99973159879106, 0.01519764566643, 0.0174860500076, -0.0108185580786, 0.97366809311201, -0.2277134235321], "ImagePositionPatient": [-568.49616581248, -575.85609569691, 9.8178958610685], "ImageType": ["ORIGINAL", "PRIMARY", "M", "ND", "NORM", "MOSAIC"], "ImagedNucleus": "1H", "ImagingFrequency": 123.256254, "InPlanePhaseEncodingDirection": "COL", "MRAcquisitionType": "2D", "MagneticFieldStrength": 3.0, "Manufacturer": "SIEMENS", "ManufacturerModelName": "Prisma", "Modality": "MR", "NumberOfAverages": 1.0, "NumberOfPhaseEncodingSteps": 64, "PercentPhaseFieldOfView": 100.0, "PercentSampling": 100.0, "PerformedProcedureStepStartTime": "122237.708000", "PhotometricInterpretation": "MONOCHROME2", "PixelBandwidth": 2300.0, "PixelRepresentation": 0, "PixelSpacing": [3.0, 3.0], "ProtocolName": "cmrr_mbep2d_Pictures_AP_RDS", "RepetitionTime": 610.0, "Rows": 384, "SAR": 0.17619419308818, "SamplesPerPixel": 1, "ScanOptions": "FS", "ScanningSequence": "EP", "SequenceName": "*epfid2d1_64", "SequenceVariant": "SK", "SeriesDescription": "cmrr_mbep2d_Pictures_AP_RDS", "SeriesNumber": 5, "SeriesTime": "122807.073000", "SliceLocation": -109.78121758151, "SliceThickness": 3.0, "SmallestImagePixelValue": 0, "SoftwareVersions": "syngo MR E11", "SpacingBetweenSlices": 3.3000000234341, "SpecificCharacterSet": "ISO_IR 100", "StudyID": "2", "StudyTime": "122237.577000", "TransmitCoilName": "Body", "VariableFlipAngleFlag": "N", "WindowCenterWidthExplanation": "Algo1"}, "slices": {}}, "time": {"samples": {"AcquisitionNumber": [1, 2, 3, 4, 5, 6, 7, 8, 9, 10, 11, 12, 13, 14, 15, 16, 17, 18, 19, 20, 21, 22, 23, 24, 25, 26, 27, 28, 29, 30, 31, 32, 33, 34, 35, 36, 37, 38, 39, 40, 41, 42, 43, 44, 45, 46, 47, 48, 49, 50, 51, 52, 53, 54, 55, 56, 57, 58, 59, 60, 61, 62, 63, 64, 65, 66, 67, 68, 69, 70, 71, 72, 73, 74, 75, 76, 77, 78, 79, 80, 81, 82, 83, 84, 85, 86, 87, 88, 89, 90, 91, 92, 93, 94, 95, 96, 97, 98, 99, 100, 101, 102, 103, 104, 105, 106, 107, 108, 109, 110, 111, 112, 113, 114, 115, 116, 117, 118, 119, 120, 121, 122, 123, 124, 125, 126, 127, 128, 129, 130, 131, 132, 133, 134, 135, 136, 137, 138, 139, 140, 141, 142, 143, 144, 145, 146, 147, 148, 149, 150, 151, 152, 153, 154, 155, 156, 157, 158, 159, 160, 161, 162, 163, 164, 165, 166, 167, 168, 169, 170, 171, 172, 173, 174, 175, 176, 177, 178, 179, 180, 181, 182, 183, 184, 185, 186, 187, 188, 189, 190, 191, 192, 193, 194, 195, 196, 197, 198, 199, 200, 201, 202, 203, 204, 205, 206, 207, 208, 209, 210, 211, 212, 213, 214, 215, 216, 217, 218, 219, 220, 221, 222, 223, 224, 225, 226, 227, 228, 229, 230, 231, 232, 233, 234, 235, 236, 237, 238, 239, 240, 241, 242, 243, 244, 245, 246, 247, 248, 249, 250, 251, 252, 253, 254, 255, 256, 257, 258, 259, 260], "AcquisitionTime": ["122741.055000", "122741.665000", "122742.275000", "122742.885000", "122743.495000", "122744.105000", "122744.715000", "122745.325000", "122745.935000", "122746.545000", "122747.155000", "122747.765000", "122748.375000", "122748.985000", "122749.595000", "122750.205000", "122750.815000", "122751.425000", "122752.035000", "122752.645000", "122753.255000", "122753.865000", "122754.475000", "122755.085000", "122755.695000", "122756.305000", "122756.915000", "122757.525000", "122758.135000", "122758.745000", "122759.355000", "122759.965000", "122800.575000", "122801.185000", "122801.795000", "122802.405000", "122803.015000", "122803.625000", "122804.235000", "122804.845000", "122805.455000", "122806.065000", "122806.675000", "122807.285000", "122807.895000", "122808.505000", "122809.115000", "122809.725000", "122810.335000", "122810.945000", "122811.555000", "122812.165000", "122812.775000", "122813.385000", "122813.995000", "122814.605000", "122815.215000", "122815.825000", "122816.435000", "122817.045000", "122817.655000", "122818.265000", "122818.875000", "122819.485000", "122820.095000", "122820.705000", "122821.315000", "122821.925000", "122822.535000", "122823.145000", "122823.755000", "122824.365000", "122824.975000", "122825.585000", "122826.195000", "122826.805000", "122827.415000", "122828.025000", "122828.635000", "122829.245000", "122829.855000", "122830.465000", "122831.075000", "122831.685000", "122832.295000", "122832.905000", "122833.515000", "122834.125000", "122834.735000", "122835.345000", "122835.955000", "122836.565000", "122837.175000", "122837.785000", "122838.395000", "122839.005000", "122839.615000", "122840.225000", "122840.835000", "122841.445000", "122842.055000", "122842.665000", "122843.275000", "122843.885000", "122844.495000", "122845.105000", "122845.715000", "122846.325000", "122846.935000", "122847.545000", "122848.155000", "122848.765000", "122849.375000", "122849.985000", "122850.595000", "122851.205000", "122851.815000", "122852.425000", "122853.035000", "122853.645000", "122854.255000", "122854.865000", "122855.475000", "122856.085000", "122856.695000", "122857.305000", "122857.915000", "122858.525000", "122859.135000", "122859.745000", "122900.355000", "122900.965000", "122901.575000", "122902.185000", "122902.795000", "122903.405000", "122904.015000", "122904.625000", "122905.235000", "122905.845000", "122906.455000", "122907.065000", "122907.675000", "122908.285000", "122908.895000", "122909.505000", "122910.115000", "122910.725000", "122911.335000", "122911.945000", "122912.555000", "122913.165000", "122913.775000", "122914.385000", "122914.995000", "122915.605000", "122916.215000", "122916.825000", "122917.435000", "122918.045000", "122918.655000", "122919.265000", "122919.875000", "122920.485000", "122921.095000", "122921.705000", "122922.315000", "122922.925000", "122923.535000", "122924.145000", "122924.755000", "122925.365000", "122925.975000", "122926.585000", "122927.195000", "122927.805000", "122928.415000", "122929.025000", "122929.635000", "122930.245000", "122930.855000", "122931.465000", "122932.075000", "122932.685000", "122933.295000", "122933.905000", "122934.515000", "122935.125000", "122935.735000", "122936.345000", "122936.955000", "122937.565000", "122938.175000", "122938.785000", "122939.395000", "122940.005000", "122940.615000", "122941.225000", "122941.835000", "122942.445000", "122943.055000", "122943.665000", "122944.275000", "122944.885000", "122945.495000", "122946.105000", "122946.715000", "122947.325000", "122947.935000", "122948.545000", "122949.155000", "122949.765000", "122950.375000", "122950.985000", "122951.595000", "122952.205000", "122952.815000", "122953.425000", "122954.035000", "122954.645000", "122955.255000", "122955.865000", "122956.475000", "122957.085000", "122957.695000", "122958.305000", "122958.915000", "122959.525000", "123000.135000", "123000.745000", "123001.355000", "123001.965000", "123002.575000", "123003.185000", "123003.795000", "123004.405000", "123005.015000", "123005.625000", "123006.235000", "123006.845000", "123007.455000", "123008.065000", "123008.675000", "123009.285000", "123009.895000", "123010.505000", "123011.115000", "123011.725000", "123012.335000", "123012.945000", "123013.555000", "123014.165000", "123014.775000", "123015.385000", "123015.995000", "123016.605000", "123017.215000", "123017.825000", "123018.435000", "123019.045000"], "ContentTime": ["122807.077000", "122807.080000", "122807.083000", "122807.085000", "122807.087000", "122807.090000", "122807.092000", "122807.097000", "122807.100000", "122807.102000", "122807.105000", "122807.107000", "122807.109000", "122807.112000", "122807.114000", "122807.117000", "122807.119000", "122807.122000", "122807.124000", "122807.127000", "122807.129000", "122807.131000", "122807.134000", "122807.142000", "122807.144000", "122807.147000", "122807.149000", "122807.151000", "122807.154000", "122807.156000", "122807.159000", "122807.161000", "122807.163000", "122807.166000", "122807.168000", "122807.171000", "122807.173000", "122807.176000", "122807.178000", "122807.180000", "122807.183000", "122807.185000", "122827.072000", "122827.075000", "122827.078000", "122827.081000", "122827.083000", "122827.085000", "122827.088000", "122827.090000", "122827.093000", "122827.095000", "122827.098000", "122827.100000", "122827.102000", "122827.105000", "122827.107000", "122827.110000", "122827.112000", "122827.114000", "122827.117000", "122827.119000", "122827.122000", "122827.124000", "122827.126000", "122827.129000", "122827.132000", "122827.134000", "122827.137000", "122827.139000", "122827.142000", "122827.144000", "122827.147000", "122827.149000", "122847.072000", "122847.075000", "122847.077000", "122847.080000", "122847.082000", "122847.085000", "122847.087000", "122847.090000", "122847.092000", "122847.094000", "122847.097000", "122847.099000", "122847.102000", "122847.104000", "122847.107000", "122847.109000", "122847.112000", "122847.115000", "122847.117000", "122847.121000", "122847.123000", "122847.126000", "122847.128000", "122847.131000", "122847.133000", "122847.136000", "122847.138000", "122847.140000", "122847.143000", "122847.145000", "122847.148000", "122847.150000", "122847.153000", "122907.072000", "122907.075000", "122907.077000", "122907.080000", "122907.082000", "122907.085000", "122907.087000", "122907.090000", "122907.092000", "122907.095000", "122907.097000", "122907.099000", "122907.104000", "122907.106000", "122907.109000", "122907.111000", "122907.113000", "122907.116000", "122907.118000", "122907.121000", "122907.123000", "122907.126000", "122907.128000", "122907.130000", "122907.133000", "122907.135000", "122907.138000", "122907.140000", "122907.142000", "122907.145000", "122907.147000", "122907.150000", "122907.152000", "122927.073000", "122927.076000", "122927.078000", "122927.081000", "122927.083000", "122927.085000", "122927.088000", "122927.090000", "122927.093000", "122927.095000", "122927.098000", "122927.128000", "122927.130000", "122927.133000", "122927.135000", "122927.138000", "122927.140000", "122927.142000", "122927.145000", "122927.147000", "122927.150000", "122927.152000", "122927.154000", "122927.157000", "122927.159000", "122927.161000", "122927.164000", "122927.166000", "122927.169000", "122927.171000", "122927.174000", "122927.176000", "122927.178000", "122947.072000", "122947.075000", "122947.077000", "122947.080000", "122947.082000", "122947.084000", "122947.087000", "122947.089000", "122947.092000", "122947.094000", "122947.096000", "122947.099000", "122947.101000", "122947.104000", "122947.106000", "122947.108000", "122947.111000", "122947.113000", "122947.116000", "122947.118000", "122947.121000", "122947.123000", "122947.125000", "122947.128000", "122947.130000", "122947.132000", "122947.135000", "122947.137000", "122947.140000", "122947.142000", "122947.145000", "122947.147000", "122947.149000", "123007.073000", "123007.075000", "123007.078000", "123007.080000", "123007.083000", "123007.085000", "123007.088000", "123007.090000", "123007.093000", "123007.095000", "123007.097000", "123007.100000", "123007.102000", "123007.105000", "123007.107000", "123007.109000", "123007.112000", "123007.115000", "123007.117000", "123007.119000", "123007.122000", "123007.124000", "123007.127000", "123007.129000", "123007.131000", "123007.134000", "123007.136000", "123007.139000", "123007.141000", "123007.144000", "123007.146000", "123007.154000", "123020.775000", "123020.778000", "123020.780000", "123020.783000", "123020.786000", "123020.788000", "123020.790000", "123020.793000", "123020.795000", "123020.798000", "123020.800000", "123020.803000", "123020.808000", "123020.811000", "123020.814000", "123020.816000", "123020.819000", "123020.826000", "123020.830000", "123020.832000", "123020.835000", "123020.838000"], "InstanceCreationTime": ["122807.077000", "122807.080000", "122807.083000", "122807.085000", "122807.087000", "122807.090000", "122807.092000", "122807.097000", "122807.100000", "122807.102000", "122807.105000", "122807.107000", "122807.109000", "122807.112000", "122807.114000", "122807.117000", "122807.119000", "122807.122000", "122807.124000", "122807.127000", "122807.129000", "122807.131000", "122807.134000", "122807.142000", "122807.144000", "122807.147000", "122807.149000", "122807.151000", "122807.154000", "122807.156000", "122807.159000", "122807.161000", "122807.163000", "122807.166000", "122807.168000", "122807.171000", "122807.173000", "122807.176000", "122807.178000", "122807.180000", "122807.183000", "122807.185000", "122827.072000", "122827.075000", "122827.078000", "122827.081000", "122827.083000", "122827.085000", "122827.088000", "122827.090000", "122827.093000", "122827.095000", "122827.098000", "122827.100000", "122827.102000", "122827.105000", "122827.107000", "122827.110000", "122827.112000", "122827.114000", "122827.117000", "122827.119000", "122827.122000", "122827.124000", "122827.126000", "122827.129000", "122827.132000", "122827.134000", "122827.137000", "122827.139000", "122827.142000", "122827.144000", "122827.147000", "122827.149000", "122847.072000", "122847.075000", "122847.077000", "122847.080000", "122847.082000", "122847.085000", "122847.087000", "122847.090000", "122847.092000", "122847.094000", "122847.097000", "122847.099000", "122847.102000", "122847.104000", "122847.107000", "122847.109000", "122847.112000", "122847.115000", "122847.117000", "122847.121000", "122847.123000", "122847.126000", "122847.128000", "122847.131000", "122847.133000", "122847.136000", "122847.138000", "122847.140000", "122847.143000", "122847.145000", "122847.148000", "122847.150000", "122847.153000", "122907.072000", "122907.075000", "122907.077000", "122907.080000", "122907.082000", "122907.085000", "122907.087000", "122907.090000", "122907.092000", "122907.095000", "122907.097000", "122907.099000", "122907.104000", "122907.106000", "122907.109000", "122907.111000", "122907.113000", "122907.116000", "122907.118000", "122907.121000", "122907.123000", "122907.126000", "122907.128000", "122907.130000", "122907.133000", "122907.135000", "122907.138000", "122907.140000", "122907.142000", "122907.145000", "122907.147000", "122907.150000", "122907.152000", "122927.073000", "122927.076000", "122927.078000", "122927.081000", "122927.083000", "122927.085000", "122927.088000", "122927.090000", "122927.093000", "122927.095000", "122927.098000", "122927.128000", "122927.130000", "122927.133000", "122927.135000", "122927.138000", "122927.140000", "122927.142000", "122927.145000", "122927.147000", "122927.150000", "122927.152000", "122927.154000", "122927.157000", "122927.159000", "122927.161000", "122927.164000", "122927.166000", "122927.169000", "122927.171000", "122927.174000", "122927.176000", "122927.178000", "122947.072000", "122947.075000", "122947.077000", "122947.080000", "122947.082000", "122947.084000", "122947.087000", "122947.089000", "122947.092000", "122947.094000", "122947.096000", "122947.099000", "122947.101000", "122947.104000", "122947.106000", "122947.108000", "122947.111000", "122947.113000", "122947.116000", "122947.118000", "122947.121000", "122947.123000", "122947.125000", "122947.128000", "122947.130000", "122947.132000", "122947.135000", "122947.137000", "122947.140000", "122947.142000", "122947.145000", "122947.147000", "122947.149000", "123007.073000", "123007.075000", "123007.078000", "123007.080000", "123007.083000", "123007.085000", "123007.088000", "123007.090000", "123007.093000", "123007.095000", "123007.097000", "123007.100000", "123007.102000", "123007.105000", "123007.107000", "123007.109000", "123007.112000", "123007.115000", "123007.117000", "123007.119000", "123007.122000", "123007.124000", "123007.127000", "123007.129000", "123007.131000", "123007.134000", "123007.136000", "123007.139000", "123007.141000", "123007.144000", "123007.146000", "123007.154000", "123020.775000", "123020.778000", "123020.780000", "123020.783000", "123020.786000", "123020.788000", "123020.790000", "123020.793000", "123020.795000", "123020.798000", "123020.800000", "123020.803000", "123020.808000", "123020.811000", "123020.814000", "123020.816000", "123020.819000", "123020.826000", "123020.830000", "123020.832000", "123020.835000", "123020.838000"], "InstanceNumber": [1, 2, 3, 4, 5, 6, 7, 8, 9, 10, 11, 12, 13, 14, 15, 16, 17, 18, 19, 20, 21, 22, 23, 24, 25, 26, 27, 28, 29, 30, 31, 32, 33, 34, 35, 36, 37, 38, 39, 40, 41, 42, 43, 44, 45, 46, 47, 48, 49, 50, 51, 52, 53, 54, 55, 56, 57, 58, 59, 60, 61, 62, 63, 64, 65, 66, 67, 68, 69, 70, 71, 72, 73, 74, 75, 76, 77, 78, 79, 80, 81, 82, 83, 84, 85, 86, 87, 88, 89, 90, 91, 92, 93, 94, 95, 96, 97, 98, 99, 100, 101, 102, 103, 104, 105, 106, 107, 108, 109, 110, 111, 112, 113, 114, 115, 116, 117, 118, 119, 120, 121, 122, 123, 124, 125, 126, 127, 128, 129, 130, 131, 132, 133, 134, 135, 136, 137, 138, 139, 140, 141, 142, 143, 144, 145, 146, 147, 148, 149, 150, 151, 152, 153, 154, 155, 156, 157, 158, 159, 160, 161, 162, 163, 164, 165, 166, 167, 168, 169, 170, 171, 172, 173, 174, 175, 176, 177, 178, 179, 180, 181, 182, 183, 184, 185, 186, 187, 188, 189, 190, 191, 192, 193, 194, 195, 196, 197, 198, 199, 200, 201, 202, 203, 204, 205, 206, 207, 208, 209, 210, 211, 212, 213, 214, 215, 216, 217, 218, 219, 220, 221, 222, 223, 224, 225, 226, 227, 228, 229, 230, 231, 232, 233, 234, 235, 236, 237, 238, 239, 240, 241, 242, 243, 244, 245, 246, 247, 248, 249, 250, 251, 252, 253, 254, 255, 256, 257, 258, 259, 260], "LargestImagePixelValue": [701, 778, 755, 729, 726, 648, 667, 674, 638, 630, 654, 695, 735, 713, 674, 634, 617, 783, 711, 671, 776, 798, 677, 641, 644, 646, 644, 640, 687, 677, 760, 715, 748, 683, 672, 748, 721, 691, 742, 695, 663, 747, 777, 737, 622, 643, 669, 647, 714, 740, 706, 687, 659, 684, 757, 675, 683, 717, 638, 661, 777, 706, 689, 714, 847, 682, 645, 678, 632, 755, 690, 681, 721, 665, 678, 721, 670, 689, 661, 627, 687, 640, 816, 832, 674, 737, 633, 650, 729, 687, 664, 737, 807, 665, 693, 677, 657, 720, 658, 669, 644, 642, 631, 632, 641, 792, 801, 748, 766, 779, 687, 754, 657, 654, 646, 634, 645, 718, 638, 623, 710, 707, 700, 648, 625, 646, 673, 662, 672, 766, 730, 711, 704, 622, 680, 634, 644, 663, 644, 716, 686, 703, 631, 686, 760, 745, 710, 626, 815, 674, 769, 787, 689, 654, 678, 647, 638, 626, 668, 685, 818, 707, 714, 711, 629, 659, 694, 852, 666, 700, 831, 697, 842, 740, 647, 686, 739, 662, 653, 653, 628, 657, 638, 647, 655, 666, 645, 679, 976, 765, 707, 675, 790, 726, 679, 680, 713, 618, 632, 655, 734, 646, 659, 756, 820, 731, 673, 755, 746, 718, 733, 669, 739, 715, 661, 700, 710, 668, 677, 647, 682, 666, 756, 692, 650, 772, 836, 718, 705, 685, 664, 782, 751, 719, 647, 626, 704, 690, 767, 690, 676, 658, 671, 636, 645, 758, 722, 703, 658, 622, 810, 690, 641, 734, 641, 751, 729, 710, 668, 740], "WindowCenter": [395.0, 393.0, 391.0, 391.0, 393.0, 391.0, 391.0, 393.0, 393.0, 392.0, 393.0, 392.0, 393.0, 390.0, 388.0, 391.0, 390.0, 397.0, 395.0, 392.0, 392.0, 392.0, 388.0, 388.0, 388.0, 389.0, 391.0, 394.0, 391.0, 392.0, 390.0, 391.0, 391.0, 392.0, 390.0, 394.0, 393.0, 386.0, 394.0, 392.0, 387.0, 395.0, 391.0, 394.0, 388.0, 390.0, 394.0, 390.0, 394.0, 396.0, 392.0, 387.0, 388.0, 393.0, 393.0, 386.0, 393.0, 395.0, 393.0, 391.0, 394.0, 395.0, 392.0, 389.0, 393.0, 392.0, 390.0, 395.0, 390.0, 395.0, 391.0, 392.0, 393.0, 390.0, 390.0, 392.0, 389.0, 391.0, 395.0, 392.0, 393.0, 390.0, 397.0, 394.0, 389.0, 393.0, 393.0, 388.0, 393.0, 390.0, 391.0, 394.0, 393.0, 392.0, 393.0, 391.0, 393.0, 396.0, 393.0, 394.0, 391.0, 392.0, 394.0, 393.0, 389.0, 397.0, 394.0, 392.0, 392.0, 392.0, 390.0, 393.0, 388.0, 392.0, 390.0, 391.0, 390.0, 396.0, 393.0, 391.0, 391.0, 392.0, 390.0, 390.0, 388.0, 391.0, 394.0, 392.0, 391.0, 390.0, 389.0, 389.0, 394.0, 390.0, 395.0, 394.0, 391.0, 392.0, 388.0, 393.0, 390.0, 390.0, 391.0, 391.0, 391.0, 393.0, 389.0, 388.0, 391.0, 387.0, 389.0, 391.0, 387.0, 390.0, 390.0, 390.0, 390.0, 393.0, 394.0, 396.0, 393.0, 395.0, 393.0, 394.0, 390.0, 390.0, 388.0, 394.0, 389.0, 390.0, 390.0, 389.0, 393.0, 393.0, 387.0, 392.0, 392.0, 391.0, 392.0, 392.0, 391.0, 394.0, 391.0, 391.0, 392.0, 394.0, 392.0, 388.0, 395.0, 390.0, 389.0, 383.0, 390.0, 388.0, 387.0, 388.0, 390.0, 391.0, 388.0, 388.0, 390.0, 395.0, 390.0, 395.0, 395.0, 387.0, 392.0, 397.0, 396.0, 391.0, 395.0, 390.0, 391.0, 392.0, 390.0, 391.0, 390.0, 389.0, 391.0, 392.0, 393.0, 391.0, 399.0, 398.0, 393.0, 397.0, 394.0, 392.0, 392.0, 391.0, 389.0, 390.0, 389.0, 390.0, 387.0, 386.0, 389.0, 388.0, 392.0, 389.0, 392.0, 388.0, 392.0, 392.0, 393.0, 397.0, 395.0, 391.0, 391.0, 387.0, 395.0, 392.0, 387.0, 394.0, 388.0, 393.0, 393.0, 392.0, 392.0, 391.0], "WindowWidth": [839.0, 836.0, 832.0, 832.0, 835.0, 832.0, 832.0, 835.0, 835.0, 834.0, 836.0, 833.0, 835.0, 830.0, 825.0, 831.0, 831.0, 843.0, 840.0, 834.0, 832.0, 833.0, 825.0, 826.0, 827.0, 829.0, 832.0, 837.0, 832.0, 833.0, 830.0, 830.0, 831.0, 833.0, 831.0, 836.0, 836.0, 822.0, 838.0, 834.0, 824.0, 838.0, 830.0, 836.0, 827.0, 829.0, 838.0, 829.0, 838.0, 842.0, 834.0, 824.0, 826.0, 836.0, 835.0, 821.0, 835.0, 838.0, 835.0, 831.0, 838.0, 839.0, 833.0, 827.0, 836.0, 833.0, 831.0, 840.0, 830.0, 838.0, 832.0, 833.0, 835.0, 831.0, 829.0, 833.0, 827.0, 832.0, 840.0, 834.0, 835.0, 830.0, 842.0, 836.0, 828.0, 835.0, 835.0, 826.0, 836.0, 830.0, 833.0, 837.0, 834.0, 835.0, 835.0, 832.0, 836.0, 841.0, 835.0, 837.0, 832.0, 834.0, 838.0, 836.0, 828.0, 842.0, 837.0, 834.0, 832.0, 832.0, 830.0, 835.0, 826.0, 833.0, 829.0, 831.0, 831.0, 842.0, 835.0, 832.0, 832.0, 833.0, 829.0, 831.0, 827.0, 832.0, 837.0, 834.0, 832.0, 829.0, 827.0, 828.0, 836.0, 831.0, 839.0, 839.0, 832.0, 833.0, 826.0, 835.0, 831.0, 830.0, 831.0, 831.0, 831.0, 836.0, 827.0, 826.0, 830.0, 823.0, 828.0, 831.0, 825.0, 829.0, 829.0, 831.0, 830.0, 835.0, 838.0, 841.0, 835.0, 839.0, 835.0, 837.0, 830.0, 831.0, 826.0, 836.0, 828.0, 829.0, 828.0, 828.0, 835.0, 835.0, 825.0, 834.0, 833.0, 832.0, 833.0, 835.0, 833.0, 838.0, 833.0, 831.0, 834.0, 837.0, 833.0, 826.0, 838.0, 829.0, 827.0, 816.0, 829.0, 825.0, 824.0, 825.0, 829.0, 833.0, 827.0, 826.0, 830.0, 840.0, 830.0, 838.0, 838.0, 825.0, 834.0, 845.0, 841.0, 831.0, 839.0, 831.0, 831.0, 834.0, 831.0, 831.0, 829.0, 828.0, 832.0, 835.0, 836.0, 833.0, 847.0, 844.0, 836.0, 842.0, 837.0, 834.0, 833.0, 832.0, 829.0, 829.0, 827.0, 828.0, 824.0, 823.0, 827.0, 825.0, 834.0, 828.0, 834.0, 826.0, 834.0, 834.0, 837.0, 842.0, 840.0, 832.0, 833.0, 824.0, 838.0, 833.0, 824.0, 837.0, 826.0, 836.0, 836.0, 834.0, 833.0, 831.0]}, "slices": {}}, "EventTimestamp": "12-29-40"}