{
    "AcquisitionMatrixPE": 64,
    "AcquisitionNumber": 1,
    "AcquisitionTime": "12:11:56.717500",
    "BandwidthPerPixelPhaseEncode": 28.935,
    "BaseResolution": 64,
    "BodyPartExamined": "BRAIN",
    "CoilCombinationMethod": "Sum of Squares",
    "ConsistencyInfo": "N4_VE11E_LATEST_20181129",
    "ConversionSoftware": "dcm2niix",
    "ConversionSoftwareVersion": "v1.0.20230411",
    "DerivedVendorReportedEchoSpacing": 0.000540003,
    "DeviceSerialNumber": "166182",
    "DwellTime": 3.4e-06,
    "EchoTime": 0.032,
    "EchoTrainLength": 64,
    "EffectiveEchoSpacing": 0.000540003,
    "FlipAngle": 40,
    "HeudiconvVersion": "0.13.1",
    "ImageOrientationPatientDICOM": [
        0.994898,
        -0.1005,
        0.00880954,
        0.100883,
        0.990463,
        -0.0938341
    ],
    "ImageOrientationText": "Tra>Cor(-5.4)>Sag(-0.0)",
    "ImageType": [
        "ORIGINAL",
        "PRIMARY",
        "M",
        "ND",
        "NORM",
        "MOSAIC"
    ],
    "ImagingFrequency": 123.255397,
    "InPlanePhaseEncodingDirectionDICOM": "COL",
    "InstitutionAddress": "PEARSE STREET .,City,District,IE,D2",
    "InstitutionName": "TCIN",
    "InstitutionalDepartmentName": "MRI",
    "MRAcquisitionType": "2D",
    "MagneticFieldStrength": 3,
    "Manufacturer": "Siemens",
    "ManufacturersModelName": "Prisma",
    "Modality": "MR",
    "MultibandAccelerationFactor": 4,
    "NonlinearGradientCorrection": false,
    "PartialFourier": 1,
    "PatientPosition": "HFS",
    "PercentPhaseFOV": 100,
    "PercentSampling": 100,
    "PhaseEncodingDirection": "j-",
    "PhaseEncodingSteps": 64,
    "PhaseResolution": 1,
    "PixelBandwidth": 2300,
    "ProcedureStepDescription": "Rhodri^Head BOLD",
    "ProtocolName": "cmrr_mbep2d_Pictures_AP_RDS",
    "PulseSequenceDetails": "%SiemensSeq%\\ep2d_bold",
    "ReceiveCoilActiveElements": "HC2,4,6,7",
    "ReceiveCoilName": "HeadNeck_64",
    "ReconMatrixPE": 64,
    "RefLinesPE": 12,
    "RepetitionTime": 0.61,
    "SAR": 0.244618,
    "ScanOptions": "FS",
    "ScanningSequence": "EP",
    "SequenceName": "*epfid2d1_64",
    "SequenceVariant": "SK",
    "SeriesDescription": "cmrr_mbep2d_Pictures_AP_RDS",
    "SeriesNumber": 11,
    "ShimSetting": [
        -3582,
        -7413,
        3883,
        584,
        -24,
        288,
        -146,
        -19
    ],
    "SliceThickness": 3,
    "SliceTiming": [
        0.2625,
        0,
        0.33,
        0.0675,
        0.395,
        0.1325,
        0.46,
        0.1975,
        0.525,
        0.2625,
        0,
        0.33,
        0.0675,
        0.395,
        0.1325,
        0.46,
        0.1975,
        0.525,
        0.2625,
        0,
        0.33,
        0.0675,
        0.395,
        0.1325,
        0.46,
        0.1975,
        0.525,
        0.2625,
        0,
        0.33,
        0.0675,
        0.395,
        0.1325,
        0.46,
        0.1975,
        0.525
    ],
    "SoftwareVersions": "syngo MR E11",
    "SpacingBetweenSlices": 3.3,
    "StationName": "AWP166182",
    "TaskName": "pictures",
    "TotalReadoutTime": 0.0340202,
    "TxRefAmp": 267.405,
    "dcmmeta_affine": [
        [
            -2.984694242477417,
            0.30264776945114136,
            -0.002325747860595584,
            86.73060607910156
        ],
        [
            0.30149903893470764,
            2.97139048576355,
            -0.31100550293922424,
            -87.41690826416016
        ],
        [
            0.02642861008644104,
            0.28150230646133423,
            3.285311222076416,
            -117.7564468383789
        ],
        [
            0.0,
            0.0,
            0.0,
            1.0
        ]
    ],
    "dcmmeta_reorient_transform": [
        [
            0.0,
            -1.0,
            0.0,
            63.0
        ],
        [
            1.0,
            0.0,
            0.0,
            0.0
        ],
        [
            0.0,
            0.0,
            1.0,
            0.0
        ],
        [
            0.0,
            0.0,
            0.0,
            1.0
        ]
    ],
    "dcmmeta_shape": [
        64,
        64,
        36,
        510
    ],
    "dcmmeta_slice_dim": 2,
    "dcmmeta_version": 0.6,
    "global": {
        "const": {
            "AcquisitionMatrix": [
                64,
                0,
                0,
                64
            ],
            "AngioFlag": "N",
            "BitsAllocated": 16,
            "BitsStored": 12,
            "BodyPartExamined": "BRAIN",
            "Columns": 384,
            "EchoNumbers": 1,
            "EchoTime": 32.0,
            "EchoTrainLength": 64,
            "FlipAngle": 40.0,
            "HighBit": 11,
            "ImageOrientationPatient": [
                0.99489808885904,
                -0.1004996758327,
                0.00880953700008,
                0.10088258561779,
                0.99046346004256,
                -0.0938340995565
            ],
            "ImagePositionPatient": [
                -631.77213812174,
                -526.9633055069,
                -59.210010292686
            ],
            "ImageType": [
                "ORIGINAL",
                "PRIMARY",
                "M",
                "ND",
                "NORM",
                "MOSAIC"
            ],
            "ImagedNucleus": "1H",
            "ImagingFrequency": 123.255397,
            "InPlanePhaseEncodingDirection": "COL",
            "MRAcquisitionType": "2D",
            "MagneticFieldStrength": 3.0,
            "Manufacturer": "SIEMENS",
            "ManufacturerModelName": "Prisma",
            "Modality": "MR",
            "NumberOfAverages": 1.0,
            "NumberOfPhaseEncodingSteps": 64,
            "PercentPhaseFieldOfView": 100.0,
            "PercentSampling": 100.0,
            "PerformedProcedureStepStartTime": "113750.107000",
            "PhotometricInterpretation": "MONOCHROME2",
            "PixelBandwidth": 2300.0,
            "PixelRepresentation": 0,
            "PixelSpacing": [
                3.0,
                3.0
            ],
            "ProtocolName": "cmrr_mbep2d_Pictures_AP_RDS",
            "RepetitionTime": 610.0,
            "Rows": 384,
            "SAR": 0.24461785139347,
            "SamplesPerPixel": 1,
            "ScanOptions": "FS",
            "ScanningSequence": "EP",
            "SequenceName": "*epfid2d1_64",
            "SequenceVariant": "SK",
            "SeriesDescription": "cmrr_mbep2d_Pictures_AP_RDS",
            "SeriesNumber": 11,
            "SeriesTime": "121213.735000",
            "SliceLocation": -109.05489417204,
            "SliceThickness": 3.0,
            "SmallestImagePixelValue": 0,
            "SoftwareVersions": "syngo MR E11",
            "SpacingBetweenSlices": 3.2999999508139,
            "SpecificCharacterSet": "ISO_IR 100",
            "StudyID": "1",
            "StudyTime": "113750.038000",
            "TransmitCoilName": "Body",
            "VariableFlipAngleFlag": "N",
            "WindowCenterWidthExplanation": "Algo1"
        },
        "slices": {}
    },
    "time": {
        "samples": {
            "AcquisitionNumber": [
                1,
                2,
                3,
                4,
                5,
                6,
                7,
                8,
                9,
                10,
                11,
                12,
                13,
                14,
                15,
                16,
                17,
                18,
                19,
                20,
                21,
                22,
                23,
                24,
                25,
                26,
                27,
                28,
                29,
                30,
                31,
                32,
                33,
                34,
                35,
                36,
                37,
                38,
                39,
                40,
                41,
                42,
                43,
                44,
                45,
                46,
                47,
                48,
                49,
                50,
                51,
                52,
                53,
                54,
                55,
                56,
                57,
                58,
                59,
                60,
                61,
                62,
                63,
                64,
                65,
                66,
                67,
                68,
                69,
                70,
                71,
                72,
                73,
                74,
                75,
                76,
                77,
                78,
                79,
                80,
                81,
                82,
                83,
                84,
                85,
                86,
                87,
                88,
                89,
                90,
                91,
                92,
                93,
                94,
                95,
                96,
                97,
                98,
                99,
                100,
                101,
                102,
                103,
                104,
                105,
                106,
                107,
                108,
                109,
                110,
                111,
                112,
                113,
                114,
                115,
                116,
                117,
                118,
                119,
                120,
                121,
                122,
                123,
                124,
                125,
                126,
                127,
                128,
                129,
                130,
                131,
                132,
                133,
                134,
                135,
                136,
                137,
                138,
                139,
                140,
                141,
                142,
                143,
                144,
                145,
                146,
                147,
                148,
                149,
                150,
                151,
                152,
                153,
                154,
                155,
                156,
                157,
                158,
                159,
                160,
                161,
                162,
                163,
                164,
                165,
                166,
                167,
                168,
                169,
                170,
                171,
                172,
                173,
                174,
                175,
                176,
                177,
                178,
                179,
                180,
                181,
                182,
                183,
                184,
                185,
                186,
                187,
                188,
                189,
                190,
                191,
                192,
                193,
                194,
                195,
                196,
                197,
                198,
                199,
                200,
                201,
                202,
                203,
                204,
                205,
                206,
                207,
                208,
                209,
                210,
                211,
                212,
                213,
                214,
                215,
                216,
                217,
                218,
                219,
                220,
                221,
                222,
                223,
                224,
                225,
                226,
                227,
                228,
                229,
                230,
                231,
                232,
                233,
                234,
                235,
                236,
                237,
                238,
                239,
                240,
                241,
                242,
                243,
                244,
                245,
                246,
                247,
                248,
                249,
                250,
                251,
                252,
                253,
                254,
                255,
                256,
                257,
                258,
                259,
                260,
                261,
                262,
                263,
                264,
                265,
                266,
                267,
                268,
                269,
                270,
                271,
                272,
                273,
                274,
                275,
                276,
                277,
                278,
                279,
                280,
                281,
                282,
                283,
                284,
                285,
                286,
                287,
                288,
                289,
                290,
                291,
                292,
                293,
                294,
                295,
                296,
                297,
                298,
                299,
                300,
                301,
                302,
                303,
                304,
                305,
                306,
                307,
                308,
                309,
                310,
                311,
                312,
                313,
                314,
                315,
                316,
                317,
                318,
                319,
                320,
                321,
                322,
                323,
                324,
                325,
                326,
                327,
                328,
                329,
                330,
                331,
                332,
                333,
                334,
                335,
                336,
                337,
                338,
                339,
                340,
                341,
                342,
                343,
                344,
                345,
                346,
                347,
                348,
                349,
                350,
                351,
                352,
                353,
                354,
                355,
                356,
                357,
                358,
                359,
                360,
                361,
                362,
                363,
                364,
                365,
                366,
                367,
                368,
                369,
                370,
                371,
                372,
                373,
                374,
                375,
                376,
                377,
                378,
                379,
                380,
                381,
                382,
                383,
                384,
                385,
                386,
                387,
                388,
                389,
                390,
                391,
                392,
                393,
                394,
                395,
                396,
                397,
                398,
                399,
                400,
                401,
                402,
                403,
                404,
                405,
                406,
                407,
                408,
                409,
                410,
                411,
                412,
                413,
                414,
                415,
                416,
                417,
                418,
                419,
                420,
                421,
                422,
                423,
                424,
                425,
                426,
                427,
                428,
                429,
                430,
                431,
                432,
                433,
                434,
                435,
                436,
                437,
                438,
                439,
                440,
                441,
                442,
                443,
                444,
                445,
                446,
                447,
                448,
                449,
                450,
                451,
                452,
                453,
                454,
                455,
                456,
                457,
                458,
                459,
                460,
                461,
                462,
                463,
                464,
                465,
                466,
                467,
                468,
                469,
                470,
                471,
                472,
                473,
                474,
                475,
                476,
                477,
                478,
                479,
                480,
                481,
                482,
                483,
                484,
                485,
                486,
                487,
                488,
                489,
                490,
                491,
                492,
                493,
                494,
                495,
                496,
                497,
                498,
                499,
                500,
                501,
                502,
                503,
                504,
                505,
                506,
                507,
                508,
                509,
                510
            ],
            "AcquisitionTime": [
                "121156.717500",
                "121157.327500",
                "121157.937500",
                "121158.547500",
                "121159.157500",
                "121159.767500",
                "121200.377500",
                "121200.987500",
                "121201.597500",
                "121202.207500",
                "121202.817500",
                "121203.427500",
                "121204.037500",
                "121204.647500",
                "121205.257500",
                "121205.867500",
                "121206.477500",
                "121207.087500",
                "121207.697500",
                "121208.307500",
                "121208.917500",
                "121209.527500",
                "121210.137500",
                "121210.747500",
                "121211.357500",
                "121211.967500",
                "121212.577500",
                "121213.187500",
                "121213.797500",
                "121214.407500",
                "121215.017500",
                "121215.627500",
                "121216.237500",
                "121216.847500",
                "121217.457500",
                "121218.067500",
                "121218.677500",
                "121219.287500",
                "121219.897500",
                "121220.507500",
                "121221.117500",
                "121221.727500",
                "121222.337500",
                "121222.947500",
                "121223.557500",
                "121224.167500",
                "121224.777500",
                "121225.387500",
                "121225.997500",
                "121226.607500",
                "121227.217500",
                "121227.827500",
                "121228.437500",
                "121229.047500",
                "121229.657500",
                "121230.267500",
                "121230.877500",
                "121231.487500",
                "121232.097500",
                "121232.707500",
                "121233.317500",
                "121233.927500",
                "121234.537500",
                "121235.147500",
                "121235.757500",
                "121236.367500",
                "121236.977500",
                "121237.587500",
                "121238.197500",
                "121238.807500",
                "121239.417500",
                "121240.027500",
                "121240.637500",
                "121241.247500",
                "121241.857500",
                "121242.467500",
                "121243.077500",
                "121243.687500",
                "121244.297500",
                "121244.907500",
                "121245.517500",
                "121246.127500",
                "121246.737500",
                "121247.347500",
                "121247.957500",
                "121248.567500",
                "121249.177500",
                "121249.787500",
                "121250.397500",
                "121251.007500",
                "121251.617500",
                "121252.227500",
                "121252.837500",
                "121253.447500",
                "121254.057500",
                "121254.667500",
                "121255.277500",
                "121255.887500",
                "121256.497500",
                "121257.107500",
                "121257.717500",
                "121258.327500",
                "121258.937500",
                "121259.547500",
                "121300.157500",
                "121300.767500",
                "121301.377500",
                "121301.987500",
                "121302.597500",
                "121303.207500",
                "121303.817500",
                "121304.427500",
                "121305.037500",
                "121305.647500",
                "121306.257500",
                "121306.867500",
                "121307.477500",
                "121308.087500",
                "121308.697500",
                "121309.307500",
                "121309.917500",
                "121310.527500",
                "121311.137500",
                "121311.747500",
                "121312.357500",
                "121312.967500",
                "121313.577500",
                "121314.187500",
                "121314.797500",
                "121315.407500",
                "121316.017500",
                "121316.627500",
                "121317.237500",
                "121317.847500",
                "121318.457500",
                "121319.067500",
                "121319.677500",
                "121320.287500",
                "121320.897500",
                "121321.507500",
                "121322.117500",
                "121322.727500",
                "121323.337500",
                "121323.947500",
                "121324.557500",
                "121325.167500",
                "121325.777500",
                "121326.387500",
                "121326.997500",
                "121327.607500",
                "121328.217500",
                "121328.827500",
                "121329.437500",
                "121330.047500",
                "121330.657500",
                "121331.267500",
                "121331.877500",
                "121332.487500",
                "121333.097500",
                "121333.707500",
                "121334.317500",
                "121334.927500",
                "121335.537500",
                "121336.147500",
                "121336.757500",
                "121337.367500",
                "121337.977500",
                "121338.587500",
                "121339.197500",
                "121339.807500",
                "121340.417500",
                "121341.027500",
                "121341.637500",
                "121342.247500",
                "121342.857500",
                "121343.467500",
                "121344.077500",
                "121344.687500",
                "121345.297500",
                "121345.907500",
                "121346.517500",
                "121347.127500",
                "121347.737500",
                "121348.347500",
                "121348.957500",
                "121349.567500",
                "121350.177500",
                "121350.787500",
                "121351.397500",
                "121352.007500",
                "121352.617500",
                "121353.227500",
                "121353.837500",
                "121354.447500",
                "121355.057500",
                "121355.667500",
                "121356.277500",
                "121356.887500",
                "121357.497500",
                "121358.107500",
                "121358.717500",
                "121359.327500",
                "121359.937500",
                "121400.547500",
                "121401.157500",
                "121401.767500",
                "121402.377500",
                "121402.987500",
                "121403.597500",
                "121404.207500",
                "121404.817500",
                "121405.427500",
                "121406.037500",
                "121406.647500",
                "121407.257500",
                "121407.867500",
                "121408.477500",
                "121409.087500",
                "121409.697500",
                "121410.307500",
                "121410.917500",
                "121411.527500",
                "121412.137500",
                "121412.747500",
                "121413.357500",
                "121413.967500",
                "121414.577500",
                "121415.187500",
                "121415.797500",
                "121416.407500",
                "121417.017500",
                "121417.627500",
                "121418.237500",
                "121418.847500",
                "121419.457500",
                "121420.067500",
                "121420.677500",
                "121421.287500",
                "121421.897500",
                "121422.507500",
                "121423.117500",
                "121423.727500",
                "121424.337500",
                "121424.947500",
                "121425.557500",
                "121426.167500",
                "121426.777500",
                "121427.387500",
                "121427.997500",
                "121428.607500",
                "121429.217500",
                "121429.827500",
                "121430.437500",
                "121431.047500",
                "121431.657500",
                "121432.267500",
                "121432.877500",
                "121433.487500",
                "121434.097500",
                "121434.707500",
                "121435.317500",
                "121435.927500",
                "121436.537500",
                "121437.147500",
                "121437.757500",
                "121438.367500",
                "121438.977500",
                "121439.587500",
                "121440.197500",
                "121440.807500",
                "121441.417500",
                "121442.027500",
                "121442.637500",
                "121443.247500",
                "121443.857500",
                "121444.467500",
                "121445.077500",
                "121445.687500",
                "121446.297500",
                "121446.907500",
                "121447.517500",
                "121448.127500",
                "121448.737500",
                "121449.347500",
                "121449.957500",
                "121450.567500",
                "121451.177500",
                "121451.787500",
                "121452.397500",
                "121453.007500",
                "121453.617500",
                "121454.227500",
                "121454.837500",
                "121455.447500",
                "121456.057500",
                "121456.667500",
                "121457.277500",
                "121457.887500",
                "121458.497500",
                "121459.107500",
                "121459.717500",
                "121500.327500",
                "121500.937500",
                "121501.547500",
                "121502.157500",
                "121502.767500",
                "121503.377500",
                "121503.987500",
                "121504.597500",
                "121505.207500",
                "121505.817500",
                "121506.427500",
                "121507.037500",
                "121507.647500",
                "121508.257500",
                "121508.867500",
                "121509.477500",
                "121510.087500",
                "121510.697500",
                "121511.307500",
                "121511.917500",
                "121512.527500",
                "121513.137500",
                "121513.747500",
                "121514.357500",
                "121514.967500",
                "121515.577500",
                "121516.187500",
                "121516.797500",
                "121517.407500",
                "121518.017500",
                "121518.627500",
                "121519.237500",
                "121519.847500",
                "121520.457500",
                "121521.067500",
                "121521.677500",
                "121522.287500",
                "121522.897500",
                "121523.507500",
                "121524.117500",
                "121524.727500",
                "121525.337500",
                "121525.947500",
                "121526.557500",
                "121527.167500",
                "121527.777500",
                "121528.387500",
                "121528.997500",
                "121529.607500",
                "121530.217500",
                "121530.827500",
                "121531.437500",
                "121532.047500",
                "121532.657500",
                "121533.267500",
                "121533.877500",
                "121534.487500",
                "121535.097500",
                "121535.707500",
                "121536.317500",
                "121536.927500",
                "121537.537500",
                "121538.147500",
                "121538.757500",
                "121539.367500",
                "121539.977500",
                "121540.587500",
                "121541.197500",
