{"AcquisitionMatrixPE": 64, "AcquisitionNumber": 1, "AcquisitionTime": "12:12:16.702500", "BandwidthPerPixelPhaseEncode": 28.935, "BaseResolution": 64, "BodyPartExamined": "BRAIN", "CoilString": "HC2_4_6_7;SC", "ConsistencyInfo": "N4_VE11E_LATEST_20181129", "ConversionSoftware": "dcm2niix", "ConversionSoftwareVersion": "v1.0.20190902", "DerivedVendorReportedEchoSpacing": 0.000540003, "DeviceSerialNumber": "166182", "DwellTime": 3.4e-06, "EchoTime": 0.032, "EchoTrainLength": 64, "EffectiveEchoSpacing": 0.000540003, "FlipAngle": 40, "ImageOrientationPatientDICOM": [0.998893, -0.0324091, -0.0341081, 0.0303444, 0.997773, -0.0594027], "ImageType": ["ORIGINAL", "PRIMARY", "M", "ND", "NORM", "MOSAIC"], "ImagingFrequency": 123.256, "InPlanePhaseEncodingDirectionDICOM": "COL", "InstitutionAddress": "PEARSE_STREET_._City_District_IE_D2", "InstitutionName": "TCIN", "InstitutionalDepartmentName": "MRI", "MRAcquisitionType": "2D", "MagneticFieldStrength": 3, "Manufacturer": "Siemens", "ManufacturersModelName": "Prisma", "Modality": "MR", "MultibandAccelerationFactor": 4, "PartialFourier": 1, "PatientPosition": "HFS", "PercentPhaseFOV": 100, "PhaseEncodingDirection": "j-", "PhaseEncodingSteps": 64, "PhaseResolution": 1, "PixelBandwidth": 2300, "ProcedureStepDescription": "Rhodri_Head_BOLD", "ProtocolName": "cmrr_mbep2d_Pictures_AP_RDS", "PulseSequenceDetails": "%SiemensSeq%_ep2d_bold", "ReceiveCoilActiveElements": "HC2,4,6,7;SC", "ReceiveCoilName": "SpecialPurpose_4", "ReconMatrixPE": 64, "RefLinesPE": 12, "RepetitionTime": 0.61, "SAR": 0.351, "ScanOptions": "FS", "ScanningSequence": "EP", "SequenceName": "_epfid2d1_64", "SequenceVariant": "SK", "SeriesDescription": "cmrr_mbep2d_Pictures_AP_RDS", "SeriesNumber": 8, "ShimSetting": [-3603, -7433, 3867, 972, -67, 68, 194, -62], "SliceThickness": 3, "SliceTiming": [0.2625, 0, 0.3275, 0.065, 0.3925, 0.13, 0.46, 0.1975, 0.525, 0.2625, 0, 0.3275, 0.065, 0.3925, 0.13, 0.46, 0.1975, 0.525, 0.2625, 0, 0.3275, 0.065, 0.3925, 0.13, 0.46, 0.1975, 0.525, 0.2625, 0, 0.3275, 0.065, 0.3925, 0.13, 0.46, 0.1975, 0.525], "SoftwareVersions": "syngo_MR_E11", "SpacingBetweenSlices": 3.3, "StationName": "AWP166182", "TaskName": "pictures", "TotalReadoutTime": 0.0340202, "TxRefAmp": 239.99, "dcmmeta_affine": [[-2.9966776371002197, 0.0910332128405571, -0.11865920573472977, 92.47171020507812], [0.09722729027271271, 2.9933183193206787, -0.1923963725566864, -97.69750213623047], [-0.10232434421777725, 0.178208127617836, 3.2922489643096924, -94.80989837646484], [0.0, 0.0, 0.0, 1.0]], "dcmmeta_reorient_transform": [[0.0, -1.0, 0.0, 63.0], [1.0, 0.0, 0.0, 0.0], [0.0, 0.0, 1.0, 0.0], [0.0, 0.0, 0.0, 1.0]], "dcmmeta_shape": [64, 64, 36, 510], "dcmmeta_slice_dim": 2, "dcmmeta_version": 0.6, "global": {"const": {"AcquisitionMatrix": [64, 0, 0, 64], "AngioFlag": "N", "BitsAllocated": 16, "BitsStored": 12, "BodyPartExamined": "BRAIN", "Columns": 384, "EchoNumbers": 1, "EchoTime": 32.0, "EchoTrainLength": 64, "FlipAngle": 40.0, "HighBit": 11, "ImageOrientationPatient": [0.99889253029779, -0.0324090959016, -0.0341081136698, 0.03034440505178, 0.99777278728409, -0.0594027106906], "ImagePositionPatient": [-592.24053148113, -554.25612922167, -38.697587250948], "ImageType": ["ORIGINAL", "PRIMARY", "M", "ND", "NORM", "MOSAIC"], "ImagedNucleus": "1H", "ImagingFrequency": 123.256363, "InPlanePhaseEncodingDirection": "COL", "MRAcquisitionType": "2D", "MagneticFieldStrength": 3.0, "Manufacturer": "SIEMENS", "ManufacturerModelName": "Prisma", "Modality": "MR", "NumberOfAverages": 1.0, "NumberOfPhaseEncodingSteps": 64, "PercentPhaseFieldOfView": 100.0, "PercentSampling": 100.0, "PerformedProcedureStepStartTime": "120057.384000", "PhotometricInterpretation": "MONOCHROME2", "PixelBandwidth": 2300.0, "PixelRepresentation": 0, "PixelSpacing": [3.0, 3.0], "ProtocolName": "cmrr_mbep2d_Pictures_AP_RDS", "RepetitionTime": 610.0, "Rows": 384, "SAR": 0.35099976042877, "SamplesPerPixel": 1, "ScanOptions": "FS", "ScanningSequence": "EP", "SequenceName": "*epfid2d1_64", "SequenceVariant": "SK", "SeriesDescription": "cmrr_mbep2d_Pictures_AP_RDS", "SeriesNumber": 8, "SeriesTime": "121230.828000", "SliceLocation": -92.216290776965, "SliceThickness": 3.0, "SmallestImagePixelValue": 0, "SoftwareVersions": "syngo MR E11", "SpacingBetweenSlices": 3.2999999487388, "SpecificCharacterSet": "ISO_IR 100", "StudyID": "1", "StudyTime": "120057.202000", "TransmitCoilName": "Body", "VariableFlipAngleFlag": "N", "WindowCenterWidthExplanation": "Algo1"}, "slices": {}}, "time": {"samples": {"AcquisitionNumber": [1, 2, 3, 4, 5, 6, 7, 8, 9, 10, 11, 12, 13, 14, 15, 16, 17, 18, 19, 20, 21, 22, 23, 24, 25, 26, 27, 28, 29, 30, 31, 32, 33, 34, 35, 36, 37, 38, 39, 40, 41, 42, 43, 44, 45, 46, 47, 48, 49, 50, 51, 52, 53, 54, 55, 56, 57, 58, 59, 60, 61, 62, 63, 64, 65, 66, 67, 68, 69, 70, 71, 72, 73, 74, 75, 76, 77, 78, 79, 80, 81, 82, 83, 84, 85, 86, 87, 88, 89, 90, 91, 92, 93, 94, 95, 96, 97, 98, 99, 100, 101, 102, 103, 104, 105, 106, 107, 108, 109, 110, 111, 112, 113, 114, 115, 116, 117, 118, 119, 120, 121, 122, 123, 124, 125, 126, 127, 128, 129, 130, 131, 132, 133, 134, 135, 136, 137, 138, 139, 140, 141, 142, 143, 144, 145, 146, 147, 148, 149, 150, 151, 152, 153, 154, 155, 156, 157, 158, 159, 160, 161, 162, 163, 164, 165, 166, 167, 168, 169, 170, 171, 172, 173, 174, 175, 176, 177, 178, 179, 180, 181, 182, 183, 184, 185, 186, 187, 188, 189, 190, 191, 192, 193, 194, 195, 196, 197, 198, 199, 200, 201, 202, 203, 204, 205, 206, 207, 208, 209, 210, 211, 212, 213, 214, 215, 216, 217, 218, 219, 220, 221, 222, 223, 224, 225, 226, 227, 228, 229, 230, 231, 232, 233, 234, 235, 236, 237, 238, 239, 240, 241, 242, 243, 244, 245, 246, 247, 248, 249, 250, 251, 252, 253, 254, 255, 256, 257, 258, 259, 260, 261, 262, 263, 264, 265, 266, 267, 268, 269, 270, 271, 272, 273, 274, 275, 276, 277, 278, 279, 280, 281, 282, 283, 284, 285, 286, 287, 288, 289, 290, 291, 292, 293, 294, 295, 296, 297, 298, 299, 300, 301, 302, 303, 304, 305, 306, 307, 308, 309, 310, 311, 312, 313, 314, 315, 316, 317, 318, 319, 320, 321, 322, 323, 324, 325, 326, 327, 328, 329, 330, 331, 332, 333, 334, 335, 336, 337, 338, 339, 340, 341, 342, 343, 344, 345, 346, 347, 348, 349, 350, 351, 352, 353, 354, 355, 356, 357, 358, 359, 360, 361, 362, 363, 364, 365, 366, 367, 368, 369, 370, 371, 372, 373, 374, 375, 376, 377, 378, 379, 380, 381, 382, 383, 384, 385, 386, 387, 388, 389, 390, 391, 392, 393, 394, 395, 396, 397, 398, 399, 400, 401, 402, 403, 404, 405, 406, 407, 408, 409, 410, 411, 412, 413, 414, 415, 416, 417, 418, 419, 420, 421, 422, 423, 424, 425, 426, 427, 428, 429, 430, 431, 432, 433, 434, 435, 436, 437, 438, 439, 440, 441, 442, 443, 444, 445, 446, 447, 448, 449, 450, 451, 452, 453, 454, 455, 456, 457, 458, 459, 460, 461, 462, 463, 464, 465, 466, 467, 468, 469, 470, 471, 472, 473, 474, 475, 476, 477, 478, 479, 480, 481, 482, 483, 484, 485, 486, 487, 488, 489, 490, 491, 492, 493, 494, 495, 496, 497, 498, 499, 500, 501, 502, 503, 504, 505, 506, 507, 508, 509, 510], "AcquisitionTime": ["121216.702500", "121217.312500", "121217.922500", "121218.532500", "121219.142500", "121219.752500", "121220.362500", "121220.972500", "121221.582500", "121222.192500", "121222.802500", "121223.412500", "121224.022500", "121224.632500", "121225.242500", "121225.852500", "121226.462500", "121227.072500", "121227.682500", "121228.292500", "121228.902500", "121229.512500", "121230.122500", "121230.732500", "121231.342500", "121231.952500", "121232.562500", "121233.172500", "121233.782500", "121234.392500", "121235.002500", "121235.612500", "121236.222500", "121236.832500", "121237.442500", "121238.052500", "121238.662500", "121239.272500", "121239.882500", "121240.492500", "121241.102500", "121241.712500", "121242.322500", "121242.932500", "121243.542500", "121244.152500", "121244.762500", "121245.372500", "121245.982500", "121246.592500", "121247.202500", "121247.812500", "121248.422500", "121249.032500", "121249.642500", "121250.252500", "121250.862500", "121251.472500", "121252.082500", "121252.692500", "121253.302500", "121253.912500", "121254.522500", "121255.132500", "121255.742500", "121256.352500", "121256.962500", "121257.572500", "121258.182500", "121258.792500", "121259.402500", "121300.012500", "121300.622500", "121301.232500", "121301.842500", "121302.452500", "121303.062500", "121303.672500", "121304.282500", "121304.892500", "121305.502500", "121306.112500", "121306.722500", "121307.332500", "121307.942500", "121308.552500", "121309.162500", "121309.772500", "121310.382500", "121310.992500", "121311.602500", "121312.212500", "121312.822500", "121313.432500", "121314.042500", "121314.652500", "121315.262500", "121315.872500", "121316.482500", "121317.092500", "121317.702500", "121318.312500", "121318.922500", "121319.532500", "121320.142500", "121320.752500", "121321.362500", "121321.972500", "121322.582500", "121323.192500", "121323.802500", "121324.412500", "121325.022500", "121325.632500", "121326.242500", "121326.852500", "121327.462500", "121328.072500", "121328.682500", "121329.292500", "121329.902500", "121330.512500", "121331.122500", "121331.732500", "121332.342500", "121332.952500", "121333.562500", "121334.172500", "121334.782500", "121335.392500", "121336.002500", "121336.612500", "121337.222500", "121337.832500", "121338.442500", "121339.052500", "121339.662500", "121340.272500", "121340.882500", "121341.492500", "121342.102500", "121342.712500", "121343.322500", "121343.932500", "121344.542500", "121345.152500", "121345.762500", "121346.372500", "121346.982500", "121347.592500", "121348.202500", "121348.812500", "121349.422500", "121350.032500", "121350.642500", "121351.252500", "121351.862500", "121352.472500", "121353.082500", "121353.692500", "121354.302500", "121354.912500", "121355.522500", "121356.132500", "121356.742500", "121357.352500", "121357.962500", "121358.572500", "121359.182500", "121359.792500", "121400.402500", "121401.012500", "121401.622500", "121402.232500", "121402.842500", "121403.452500", "121404.062500", "121404.672500", "121405.282500", "121405.892500", "121406.502500", "121407.112500", "121407.722500", "121408.332500", "121408.942500", "121409.552500", "121410.162500", "121410.772500", "121411.382500", "121411.992500", "121412.602500", "121413.212500", "121413.822500", "121414.432500", "121415.042500", "121415.652500", "121416.262500", "121416.872500", "121417.482500", "121418.092500", "121418.702500", "121419.312500", "121419.922500", "121420.532500", "121421.142500", "121421.752500", "121422.362500", "121422.972500", "121423.582500", "121424.192500", "121424.802500", "121425.412500", "121426.022500", "121426.632500", "121427.242500", "121427.852500", "121428.462500", "121429.072500", "121429.682500", "121430.292500", "121430.902500", "121431.512500", "121432.122500", "121432.732500", "121433.342500", "121433.952500", "121434.562500", "121435.172500", "121435.782500", "121436.392500", "121437.002500", "121437.612500", "121438.222500", "121438.832500", "121439.442500", "121440.052500", "121440.662500", "121441.272500", "121441.882500", "121442.492500", "121443.102500", "121443.712500", "121444.322500", "121444.932500", "121445.542500", "121446.152500", "121446.762500", "121447.372500", "121447.982500", "121448.592500", "121449.202500", "121449.812500", "121450.422500", "121451.032500", "121451.642500", "121452.252500", "121452.862500", "121453.472500", "121454.082500", "121454.692500", "121455.302500", "121455.912500", "121456.522500", "121457.132500", "121457.742500", "121458.352500", "121458.962500", "121459.572500", "121500.182500", "121500.792500", "121501.402500", "121502.012500", "121502.622500", "121503.232500", "121503.842500", "121504.452500", "121505.062500", "121505.672500", "121506.282500", "121506.892500", "121507.502500", "121508.112500", "121508.722500", "121509.332500", "121509.942500", "121510.552500", "121511.162500", "121511.772500", "121512.382500", "121512.992500", "121513.602500", "121514.212500", "121514.822500", "121515.432500", "121516.042500", "121516.652500", "121517.262500", "121517.872500", "121518.482500", "121519.092500", "121519.702500", "121520.312500", "121520.922500", "121521.532500", "121522.142500", "121522.752500", "121523.362500", "121523.972500", "121524.582500", "121525.192500", "121525.802500", "121526.412500", "121527.022500", "121527.632500", "121528.242500", "121528.852500", "121529.462500", "121530.072500", "121530.682500", "121531.292500", "121531.902500", "121532.512500", "121533.122500", "121533.732500", "121534.342500", "121534.952500", "121535.562500", "121536.172500", "121536.782500", "121537.392500", "121538.002500", "121538.612500", "121539.222500", "121539.832500", "121540.442500", "121541.052500", "121541.662500", "121542.272500", "121542.882500", "121543.492500", "121544.102500", "121544.712500", "121545.322500", "121545.932500", "121546.542500", "121547.152500", "121547.762500", "121548.372500", "121548.982500", "121549.592500", "121550.202500", "121550.812500", "121551.422500", "121552.032500", "121552.642500", "121553.252500", "121553.862500", "121554.472500", "121555.082500", "121555.692500", "121556.302500", "121556.912500", "121557.522500", "121558.132500", "121558.742500", "121559.352500", "121559.962500", "121600.572500", "121601.182500", "121601.792500", "121602.402500", "121603.012500", "121603.622500", "121604.232500", "121604.842500", "121605.452500", "121606.062500", "121606.672500", "121607.282500", "121607.892500", "121608.502500", "121609.112500", "121609.722500", "121610.332500", "121610.942500", "121611.552500", "121612.162500", "121612.772500", "121613.382500", "121613.992500", "121614.602500", "121615.212500", "121615.822500", "121616.432500", "121617.042500", "121617.652500", "121618.262500", "121618.872500", "121619.482500", "121620.092500", "121620.702500", "121621.312500", "121621.922500", "121622.532500", "121623.142500", "121623.752500", "121624.362500", "121624.972500", "121625.582500", "121626.192500", "121626.802500", "121627.412500", "121628.022500", "121628.632500", "121629.242500", "121629.852500", "121630.462500", "121631.072500", "121631.682500", "121632.292500", "121632.902500", "121633.512500", "121634.122500", "121634.732500", "121635.342500", "121635.952500", "121636.562500", "121637.172500", "121637.782500", "121638.392500", "121639.002500", "121639.612500", "121640.222500", "121640.832500", "121641.442500", "121642.052500", "121642.662500", "121643.272500", "121643.882500", "121644.492500", "121645.102500", "121645.712500", "121646.322500", "121646.932500", "121647.542500", "121648.152500", "121648.762500", "121649.372500", "121649.982500", "121650.592500", "121651.202500", "121651.812500", "121652.422500", "121653.032500", "121653.642500", "121654.252500", "121654.862500", "121655.472500", "121656.082500", "121656.692500", "121657.302500", "121657.912500", "121658.522500", "121659.132500", "121659.742500", "121700.352500", "121700.962500", "121701.572500", "121702.182500", "121702.792500", "121703.402500", "121704.012500", "121704.622500", "121705.232500", "121705.842500", "121706.452500", "121707.062500", "121707.672500", "121708.282500", "121708.892500", "121709.502500", "121710.112500", "121710.722500", "121711.332500", "121711.942500", "121712.552500", "121713.162500", "121713.772500", "121714.382500", "121714.992500", "121715.602500", "121716.212500", "121716.822500", "121717.432500", "121718.042500", "121718.652500", "121719.262500", "121719.872500", "121720.482500", "121721.092500", "121721.702500", "121722.312500", "121722.922500", "121723.532500", "121724.142500", "121724.752500", "121725.362500", "121725.972500", "121726.582500", "121727.192500"], "ContentTime": ["121230.831000", "121230.834000", "121230.837000", "121230.839000", "121230.846000", "121230.848000", "121230.851000", "121230.853000", "121230.856000", "121230.858000", "121230.860000", "121230.863000", "121230.865000", "121230.868000", "121230.870000", "121230.873000", "121230.875000", "121230.878000", "121230.880000", "121230.882000", "121230.889000", "121230.891000", "121250.826000", "121250.829000", "121250.831000", "121250.834000", "121250.836000", "121250.839000", "121250.841000", "121250.844000", "121250.846000", "121250.848000", "121250.851000", "121250.853000", "121250.856000", "121250.858000", "121250.860000", "121250.863000", "121250.865000", "121250.868000", "121250.870000", "121250.872000", "121250.875000", "121250.877000", "121250.887000", "121250.889000", "121250.892000", "121250.894000", "121250.897000", "121250.899000", "121250.902000", "121250.904000", "121250.906000", "121250.909000", "121250.911000", "121310.826000", "121310.829000", "121310.832000", "121310.834000", "121310.837000", "121310.839000", "121310.842000", "121310.844000", "121310.846000", "121310.849000", "121310.851000", "121310.854000", "121310.864000", "121310.866000", "121310.868000", "121310.871000", "121310.873000", "121310.876000", "121310.878000", "121310.880000", "121310.883000", "121310.885000", "121310.888000", "121310.890000", "121310.895000", "121310.898000", "121310.900000", "121310.903000", "121310.905000", "121310.907000", "121310.910000", "121310.912000", "121310.915000", "121330.826000", "121330.829000", "121330.831000", "121330.834000", "121330.836000", "121330.839000", "121330.841000", "121330.843000", "121330.846000", "121330.848000", "121330.851000", "121330.853000", "121330.855000", "121330.858000", "121330.860000", "121330.863000", "121330.865000", "121330.867000", "121330.870000", "121330.872000", "121330.875000", "121330.877000", "121330.879000", "121330.882000", "121330.884000", "121330.887000", "121330.889000", "121330.891000", "121330.894000", "121330.896000", "121330.899000", "121330.901000", "121330.904000", "121350.826000", "121350.829000", "121350.832000", "121350.834000", "121350.836000", "121350.839000", "121350.841000", "121350.844000", "121350.846000", "121350.849000", "121350.851000", "121350.854000", "121350.856000", "121350.861000", "121350.867000", "121350.869000", "121350.885000", "121350.888000", "121350.890000", "121350.892000", "121350.895000", "121350.897000", "121350.900000", "121350.902000", "121350.904000", "121350.907000", "121350.909000", "121350.912000", "121350.914000", "121350.916000", "121350.919000", "121350.921000", "121410.826000", "121410.829000", "121410.831000", "121410.834000", "121410.836000", "121410.839000", "121410.841000", "121410.843000", "121410.846000", "121410.848000", "121410.851000", "121410.853000", "121410.855000", "121410.858000", "121410.860000", "121410.862000", "121410.865000", "121410.867000", "121410.870000", "121410.872000", "121410.875000", "121410.877000", "121410.879000", "121410.882000", "121410.884000", "121410.887000", "121410.889000", "121410.891000", "121410.894000", "121410.896000", "121410.899000", "121410.901000", "121410.903000", "121430.826000", "121430.829000", "121430.831000", "121430.834000", "121430.836000", "121430.839000", "121430.841000", "121430.843000", "121430.846000", "121430.848000", "121430.851000", "121430.853000", "121430.856000", "121430.858000", "121430.860000", "121430.863000", "121430.865000", "121430.868000", "121430.870000", "121430.873000", "121430.875000", "121430.877000", "121430.880000", "121430.882000", "121430.885000", "121430.887000", "121430.889000", "121430.892000", "121430.894000", "121430.897000", "121430.899000", "121430.902000", "121430.904000", "121450.826000", "121450.829000", "121450.831000", "121450.834000", "121450.836000", "121450.839000", "121450.841000", "121450.844000", "121450.846000", "121450.848000", "121450.851000", "121450.853000", "121450.855000", "121450.858000", "121450.860000", "121450.863000", "121450.865000", "121450.868000", "121450.870000", "121450.873000", "121450.875000", "121450.877000", "121450.880000", "121450.882000", "121450.885000", "121450.887000", "121450.890000", "121450.892000", "121450.894000", "121450.897000", "121450.899000", "121450.902000", "121450.904000", "121510.826000", "121510.829000", "121510.831000", "121510.834000", "121510.837000", "121510.839000", "121510.841000", "121510.844000", "121510.846000", "121510.849000", "121510.851000", "121510.854000", "121510.856000", "121510.859000", "121510.861000", "121510.864000", "121510.866000", "121510.868000", "121510.871000", "121510.873000", "121510.876000", "121510.878000", "121510.880000", "121510.883000", "121510.885000", "121510.888000", "121510.890000", "121510.893000", "121510.895000", "121510.898000", "121510.900000", "121510.903000", "121530.826000", "121530.829000", "121530.831000", "121530.834000", "121530.836000", "121530.838000", "121530.841000", "121530.843000", "121530.846000", "121530.848000", "121530.851000", "121530.853000", "121530.855000", "121530.858000", "121530.860000", "121530.864000", "121530.867000", "121530.869000", "121530.872000", "121530.874000", "121530.876000", "121530.879000", "121530.881000", "121530.884000", "121530.886000", "121530.888000", "121530.891000", "121530.893000", "121530.895000", "121530.898000", "121530.900000", "121530.903000", "121530.905000", "121550.826000", "121550.829000", "121550.831000", "121550.834000", "121550.836000", "121550.838000", "121550.841000", "121550.843000", "121550.845000", "121550.848000", "121550.850000", "121550.853000", "121550.855000", "121550.857000", "121550.860000", "121550.862000", "121550.865000", "121550.874000", "121550.876000", "121550.879000", "121550.881000", "121550.883000", "121550.886000", "121550.888000", "121550.891000", "121550.893000", "121550.895000", "121550.898000", "121550.900000", "121550.903000", "121550.905000", "121550.907000", "121550.910000", "121610.826000", "121610.829000", "121610.831000", "121610.834000", "121610.837000", "121610.839000", "121610.842000", "121610.844000", "121610.846000", "121610.849000", "121610.851000", "121610.854000", "121610.856000", "121610.858000", "121610.861000", "121610.863000", "121610.866000", "121610.868000", "121610.871000", "121610.873000", "121610.875000", "121610.878000", "121610.880000", "121610.883000", "121610.885000", "121610.888000", "121610.890000", "121610.892000", "121610.895000", "121610.897000", "121610.900000", "121610.902000", "121610.904000", "121630.826000", "121630.829000", "121630.831000", "121630.834000", "121630.836000", "121630.839000", "121630.841000", "121630.843000", "121630.846000", "121630.848000", "121630.875000", "121630.878000", "121630.880000", "121630.882000", "121630.885000", "121630.887000", "121630.890000", "121630.892000", "121630.894000", "121630.897000", "121630.899000", "121630.902000", "121630.904000", "121630.906000", "121630.909000", "121630.911000", "121630.914000", "121630.916000", "121630.918000", "121630.921000", "121630.923000", "121630.926000", "121630.929000", "121650.826000", "121650.829000", "121650.832000", "121650.834000", "121650.836000", "121650.839000", "121650.841000", "121650.844000", "121650.846000", "121650.849000", "121650.851000", "121650.853000", "121650.856000", "121650.858000", "121650.861000", "121650.863000", "121650.865000", "121650.868000", "121650.870000", "121650.873000", "121650.875000", "121650.878000", "121650.880000", "121650.882000", "121650.885000", "121650.887000", "121650.890000", "121650.892000", "121650.894000", "121650.897000", "121650.899000", "121650.902000", "121710.826000", "121710.829000", "121710.831000", "121710.834000", "121710.836000", "121710.839000", "121710.841000", "121710.843000", "121710.846000", "121710.848000", "121710.851000", "121710.853000", "121710.855000", "121710.858000", "121710.860000", "121710.863000", "121710.865000", "121710.867000", "121710.870000", "121710.872000", "121710.874000", "121710.877000", "121710.879000", "121710.882000", "121710.884000", "121710.887000", "121710.889000", "121710.891000", "121710.894000", "121710.896000", "121710.898000", "121710.902000", "121710.905000", "121728.109000", "121728.112000", "121728.115000", "121728.117000", "121728.120000", "121728.122000", "121728.124000", "121728.127000", "121728.129000", "121728.132000", "121728.134000", "121728.136000", "121728.139000", "121728.141000", "121728.144000", "121728.146000", "121728.149000", "121728.151000", "121728.153000", "121728.156000", "121728.158000", "121728.161000", "121728.163000", "121728.165000", "121728.168000", "121728.170000", "121728.172000", "121728.175000", "121728.177000"], "InstanceCreationTime": ["121230.831000", "121230.834000", "121230.837000", "121230.839000", "121230.846000", "121230.848000", "121230.851000", "121230.853000", "121230.856000", "121230.858000", "121230.860000", "121230.863000", "121230.865000", "121230.868000", "121230.870000", "121230.873000", "121230.875000", "121230.878000", "121230.880000", "121230.882000", "121230.889000", "121230.891000", "121250.826000", "121250.829000", "121250.831000", "121250.834000", "121250.836000", "121250.839000", "121250.841000", "121250.844000", "121250.846000", "121250.848000", "121250.851000", "121250.853000", "121250.856000", "121250.858000", "121250.860000", "121250.863000", "121250.865000", "121250.868000", "121250.870000", "121250.872000", "121250.875000", "121250.877000", "121250.887000", "121250.889000", "121250.892000", "121250.894000", "121250.897000", "121250.899000", "121250.902000", "121250.904000", "121250.906000", "121250.909000", "121250.911000", "121310.826000", "121310.829000", "121310.832000", "121310.834000", "121310.837000", "121310.839000", "121310.842000", "121310.844000", "121310.846000", "121310.849000", "121310.851000", "121310.854000", "121310.864000", "121310.866000", "121310.868000", "121310.871000", "121310.873000", "121310.876000", "121310.878000", "121310.880000", "121310.883000", "121310.885000", "121310.888000", "121310.890000", "121310.895000", "121310.898000", "121310.900000", "121310.903000", "121310.905000", "121310.907000", "121310.910000", "121310.912000", "121310.915000", "121330.826000", "121330.829000", "121330.831000", "121330.834000", "121330.836000", "121330.839000", "121330.841000", "121330.843000", "121330.846000", "121330.848000", "121330.851000", "121330.853000", "121330.855000", "121330.858000", "121330.860000", "121330.863000", "121330.865000", "121330.867000", "121330.870000", "121330.872000", "121330.875000", "121330.877000", "121330.879000", "121330.882000", "121330.884000", "121330.887000", "121330.889000", "121330.891000", "121330.894000", "121330.896000", "121330.899000", "121330.901000", "121330.904000", "121350.826000", "121350.829000", "121350.832000", "121350.834000", "121350.836000", "121350.839000", "121350.841000", "121350.844000", "121350.846000", "121350.849000", "121350.851000", "121350.854000", "121350.856000", "121350.861000", "121350.867000", "121350.869000", "121350.885000", "121350.888000", "121350.890000", "121350.892000", "121350.895000", "121350.897000", "121350.900000", "121350.902000", "121350.904000", "121350.907000", "121350.909000", "121350.912000", "121350.914000", "121350.916000", "121350.919000", "121350.921000", "121410.826000", "121410.829000", "121410.831000", "121410.834000", "121410.836000", "121410.839000", "121410.841000", "121410.843000", "121410.846000", "121410.848000", "121410.851000", "121410.853000", "121410.855000", "121410.858000", "121410.860000", "121410.862000", "121410.865000", "121410.867000", "121410.870000", "121410.872000", "121410.875000", "121410.877000", "121410.879000", "121410.882000", "121410.884000", "121410.887000", "121410.889000", "121410.891000", "121410.894000", "121410.896000", "121410.899000", "121410.901000", "121410.903000", "121430.826000", "121430.829000", "121430.831000", "121430.834000", "121430.836000", "121430.839000", "121430.841000", "121430.843000", "121430.846000", "121430.848000", "121430.851000", "121430.853000", "121430.856000", "121430.858000", "121430.860000", "121430.863000", "121430.865000", "121430.868000", "121430.870000", "121430.873000", "121430.875000", "121430.877000", "121430.880000", "121430.882000", "121430.885000", "121430.887000", "121430.889000", "121430.892000", "121430.894000", "121430.897000", "121430.899000", "121430.902000", "121430.904000", "121450.826000", "121450.829000", "121450.831000", "121450.834000", "121450.836000", "121450.839000", "121450.841000", "121450.844000", "121450.846000", "121450.848000", "121450.851000", "121450.853000", "121450.855000", "121450.858000", "121450.860000", "121450.863000", "121450.865000", "121450.868000", "121450.870000", "121450.873000", "121450.875000", "121450.877000", "121450.880000", "121450.882000", "121450.885000", "121450.887000", "121450.890000", "121450.892000", "121450.894000", "121450.897000", "121450.899000", "121450.902000", "121450.904000", "121510.826000", "121510.829000", "121510.831000", "121510.834000", "121510.837000", "121510.839000", "121510.841000", "121510.844000", "121510.846000", "121510.849000", "121510.851000", "121510.854000", "121510.856000", "121510.859000", "121510.861000", "121510.864000", "121510.866000", "121510.868000", "121510.871000", "121510.873000", "121510.876000", "121510.878000", "121510.880000", "121510.883000", "121510.885000", "121510.888000", "121510.890000", "121510.893000", "121510.895000", "121510.898000", "121510.900000", "121510.903000", "121530.826000", "121530.829000", "121530.831000", "121530.834000", "121530.836000", "121530.838000", "121530.841000", "121530.843000", "121530.846000", "121530.848000", "121530.851000", "121530.853000", "121530.855000", "121530.858000", "121530.860000", "121530.864000", "121530.867000", "121530.869000", "121530.872000", "121530.874000", "121530.876000", "121530.879000", "121530.881000", "121530.884000", "121530.886000", "121530.888000", "121530.891000", "121530.893000", "121530.895000", "121530.898000", "121530.900000", "121530.903000", "121530.905000", "121550.826000", "121550.829000", "121550.831000", "121550.834000", "121550.836000", "121550.838000", "121550.841000", "121550.843000", "121550.845000", "121550.848000", "121550.850000", "121550.853000", "121550.855