{
    "AcquisitionMatrixPE": 64,
    "AcquisitionNumber": 1,
    "AcquisitionTime": "11:53:37.700000",
    "BandwidthPerPixelPhaseEncode": 28.935,
    "BaseResolution": 64,
    "BodyPartExamined": "BRAIN",
    "CoilString": "HC2_4_6_7",
    "ConsistencyInfo": "N4_VE11E_LATEST_20181129",
    "ConversionSoftware": "dcm2niix",
    "ConversionSoftwareVersion": "v1.0.20190902",
    "DerivedVendorReportedEchoSpacing": 0.000540003,
    "DeviceSerialNumber": "166182",
    "DwellTime": 3.4e-06,
    "EchoTime": 0.032,
    "EchoTrainLength": 64,
    "EffectiveEchoSpacing": 0.000540003,
    "FlipAngle": 40,
    "ImageOrientationPatientDICOM": [
        0.998733,
        -0.0432977,
        -0.025664,
        0.0418593,
        0.997655,
        -0.0541594
    ],
    "ImageType": [
        "ORIGINAL",
        "PRIMARY",
        "M",
        "ND",
        "NORM",
        "MOSAIC"
    ],
    "ImagingFrequency": 123.256,
    "InPlanePhaseEncodingDirectionDICOM": "COL",
    "InstitutionAddress": "PEARSE_STREET_._City_District_IE_D2",
    "InstitutionName": "TCIN",
    "InstitutionalDepartmentName": "MRI",
    "MRAcquisitionType": "2D",
    "MagneticFieldStrength": 3,
    "Manufacturer": "Siemens",
    "ManufacturersModelName": "Prisma",
    "Modality": "MR",
    "MultibandAccelerationFactor": 4,
    "PartialFourier": 1,
    "PatientPosition": "HFS",
    "PercentPhaseFOV": 100,
    "PhaseEncodingDirection": "j-",
    "PhaseEncodingSteps": 64,
    "PhaseResolution": 1,
    "PixelBandwidth": 2300,
    "ProcedureStepDescription": "Rhodri_Head_BOLD",
    "ProtocolName": "cmrr_mbep2d_Pictures_AP_RDS",
    "PulseSequenceDetails": "%SiemensSeq%_ep2d_bold",
    "ReceiveCoilActiveElements": "HC2,4,6,7",
    "ReceiveCoilName": "HeadNeck_64",
    "ReconMatrixPE": 64,
    "RefLinesPE": 12,
    "RepetitionTime": 0.61,
    "SAR": 0.192569,
    "ScanOptions": "FS",
    "ScanningSequence": "EP",
    "SequenceName": "_epfid2d1_64",
    "SequenceVariant": "SK",
    "SeriesDescription": "cmrr_mbep2d_Pictures_AP_RDS",
    "SeriesNumber": 8,
    "ShimSetting": [
        -3617,
        -7505,
        3875,
        688,
        -2,
        194,
        282,
        15
    ],
    "SliceThickness": 3,
    "SliceTiming": [
        0.2625,
        0,
        0.3275,
        0.065,
        0.3925,
        0.13,
        0.4575,
        0.1975,
        0.525,
        0.2625,
        0,
        0.3275,
        0.065,
        0.3925,
        0.13,
        0.4575,
        0.1975,
        0.525,
        0.2625,
        0,
        0.3275,
        0.065,
        0.3925,
        0.13,
        0.4575,
        0.1975,
        0.525,
        0.2625,
        0,
        0.3275,
        0.065,
        0.3925,
        0.13,
        0.4575,
        0.1975,
        0.525
    ],
    "SoftwareVersions": "syngo_MR_E11",
    "SpacingBetweenSlices": 3.3,
    "StationName": "AWP166182",
    "TaskName": "pictures",
    "TotalReadoutTime": 0.0340202,
    "TxRefAmp": 232.9,
    "dcmmeta_affine": [
        [
            -2.9961977005004883,
            0.1255778819322586,
            -0.09223093837499619,
            94.00704956054688
        ],
        [
            0.1298932135105133,
            2.9929635524749756,
            -0.17495432496070862,
            -98.9889907836914
        ],
        [
            -0.07699195295572281,
            0.16247814893722534,
            3.2940680980682373,
            -88.31123352050781
        ],
        [
            0.0,
            0.0,
            0.0,
            1.0
        ]
    ],
    "dcmmeta_reorient_transform": [
        [
            0.0,
            -1.0,
            0.0,
            63.0
        ],
        [
            1.0,
            0.0,
            0.0,
            0.0
        ],
        [
            0.0,
            0.0,
            1.0,
            0.0
        ],
        [
            0.0,
            0.0,
            0.0,
            1.0
        ]
    ],
    "dcmmeta_shape": [
        64,
        64,
        36,
        184
    ],
    "dcmmeta_slice_dim": 2,
    "dcmmeta_version": 0.6,
    "global": {
        "const": {
            "AcquisitionMatrix": [
                64,
                0,
                0,
                64
            ],
            "AngioFlag": "N",
            "BitsAllocated": 16,
            "BitsStored": 12,
            "BodyPartExamined": "BRAIN",
            "Columns": 384,
            "EchoNumbers": 1,
            "EchoTime": 32.0,
            "EchoTrainLength": 64,
            "FlipAngle": 40.0,
            "HighBit": 11,
            "ImageOrientationPatient": [
                0.9987325295674,
                -0.0432977401901,
                -0.02566398407,
                0.04185929644293,
                0.99765452953652,
                -0.0541593851199
            ],
            "ImagePositionPatient": [
                -601.40253613582,
                -547.65897426944,
                -39.759890896921
            ],
            "ImageType": [
                "ORIGINAL",
                "PRIMARY",
                "M",
                "ND",
                "NORM",
                "MOSAIC"
            ],
            "ImagedNucleus": "1H",
            "ImagingFrequency": 123.256039,
            "InPlanePhaseEncodingDirection": "COL",
            "MRAcquisitionType": "2D",
            "MagneticFieldStrength": 3.0,
            "Manufacturer": "SIEMENS",
            "ManufacturerModelName": "Prisma",
            "Modality": "MR",
            "NumberOfAverages": 1.0,
            "NumberOfPhaseEncodingSteps": 64,
            "PercentPhaseFieldOfView": 100.0,
            "PercentSampling": 100.0,
            "PerformedProcedureStepStartTime": "114030.182000",
            "PhotometricInterpretation": "MONOCHROME2",
            "PixelBandwidth": 2300.0,
            "PixelRepresentation": 0,
            "PixelSpacing": [
                3.0,
                3.0
            ],
            "ProtocolName": "cmrr_mbep2d_Pictures_AP_RDS",
            "RepetitionTime": 610.0,
            "Rows": 384,
            "SAR": 0.1925685701331,
            "SamplesPerPixel": 1,
            "ScanOptions": "FS",
            "ScanningSequence": "EP",
            "SequenceName": "*epfid2d1_64",
            "SequenceVariant": "SK",
            "SeriesDescription": "cmrr_mbep2d_Pictures_AP_RDS",
            "SeriesNumber": 8,
            "SeriesTime": "115356.801000",
            "SliceLocation": -85.531822778574,
            "SliceThickness": 3.0,
            "SmallestImagePixelValue": 0,
            "SoftwareVersions": "syngo MR E11",
            "SpacingBetweenSlices": 3.299999968571,
            "SpecificCharacterSet": "ISO_IR 100",
            "StudyID": "1",
            "StudyTime": "114030.065000",
            "TransmitCoilName": "Body",
            "VariableFlipAngleFlag": "N",
            "WindowCenterWidthExplanation": "Algo1"
        },
        "slices": {}
    },
    "time": {
        "samples": {
            "AcquisitionNumber": [
                1,
                2,
                3,
                4,
                5,
                6,
                7,
                8,
                9,
                10,
                11,
                12,
                13,
                14,
                15,
                16,
                17,
                18,
                19,
                20,
                21,
                22,
                23,
                24,
                25,
                26,
                27,
                28,
                29,
                30,
                31,
                32,
                33,
                34,
                35,
                36,
                37,
                38,
                39,
                40,
                41,
                42,
                43,
                44,
                45,
                46,
                47,
                48,
                49,
                50,
                51,
                52,
                53,
                54,
                55,
                56,
                57,
                58,
                59,
                60,
                61,
                62,
                63,
                64,
                65,
                66,
                67,
                68,
                69,
                70,
                71,
                72,
                73,
                74,
                75,
                76,
                77,
                78,
                79,
                80,
                81,
                82,
                83,
                84,
                85,
                86,
                87,
                88,
                89,
                90,
                91,
                92,
                93,
                94,
                95,
                96,
                97,
                98,
                99,
                100,
                101,
                102,
                103,
                104,
                105,
                106,
                107,
                108,
                109,
                110,
                111,
                112,
                113,
                114,
                115,
                116,
                117,
                118,
                119,
                120,
                121,
                122,
                123,
                124,
                125,
                126,
                127,
                128,
                129,
                130,
                131,
                132,
                133,
                134,
                135,
                136,
                137,
                138,
                139,
                140,
                141,
                142,
                143,
                144,
                145,
                146,
                147,
                148,
                149,
                150,
                151,
                152,
                153,
                154,
                155,
                156,
                157,
                158,
                159,
                160,
                161,
                162,
                163,
                164,
                165,
                166,
                167,
                168,
                169,
                170,
                171,
                172,
                173,
                174,
                175,
                176,
                177,
                178,
                179,
                180,
                181,
                182,
                183,
                184
            ],
            "AcquisitionTime": [
                "115337.700000",
                "115338.310000",
                "115338.920000",
                "115339.530000",
                "115340.140000",
                "115340.750000",
                "115341.360000",
                "115341.970000",
                "115342.580000",
                "115343.190000",
                "115343.800000",
                "115344.410000",
                "115345.020000",
                "115345.630000",
                "115346.240000",
                "115346.850000",
                "115347.460000",
                "115348.070000",
                "115348.680000",
                "115349.290000",
                "115349.900000",
                "115350.510000",
                "115351.120000",
                "115351.730000",
                "115352.340000",
                "115352.950000",
                "115353.560000",
                "115354.170000",
                "115354.780000",
                "115355.390000",
                "115356.000000",
                "115356.610000",
                "115357.220000",
                "115357.830000",
                "115358.440000",
                "115359.050000",
                "115359.660000",
                "115400.270000",
                "115400.880000",
                "115401.490000",
                "115402.100000",
                "115402.710000",
                "115403.320000",
                "115403.930000",
                "115404.540000",
                "115405.150000",
                "115405.760000",
                "115406.370000",
                "115406.980000",
                "115407.590000",
                "115408.200000",
                "115408.810000",
                "115409.420000",
                "115410.030000",
                "115410.640000",
                "115411.250000",
                "115411.860000",
                "115412.470000",
                "115413.080000",
                "115413.690000",
                "115414.300000",
                "115414.910000",
                "115415.520000",
                "115416.130000",
                "115416.740000",
                "115417.350000",
                "115417.960000",
                "115418.570000",
                "115419.180000",
                "115419.790000",
                "115420.400000",
                "115421.010000",
                "115421.620000",
                "115422.230000",
                "115422.840000",
                "115423.450000",
                "115424.060000",
                "115424.670000",
                "115425.280000",
                "115425.890000",
                "115426.500000",
                "115427.110000",
                "115427.720000",
                "115428.330000",
                "115428.940000",
                "115429.550000",
                "115430.160000",
                "115430.770000",
                "115431.380000",
                "115431.990000",
                "115432.600000",
                "115433.210000",
                "115433.820000",
                "115434.430000",
                "115435.040000",
                "115435.650000",
                "115436.260000",
                "115436.870000",
                "115437.480000",
                "115438.090000",
                "115438.700000",
                "115439.310000",
                "115439.920000",
                "115440.530000",
                "115441.140000",
                "115441.750000",
                "115442.360000",
                "115442.970000",
                "115443.580000",
                "115444.190000",
                "115444.800000",
                "115445.410000",
                "115446.020000",
                "115446.630000",
                "115447.240000",
                "115447.850000",
                "115448.460000",
                "115449.070000",
                "115449.680000",
                "115450.290000",
                "115450.900000",
                "115451.510000",
                "115452.120000",
                "115452.730000",
                "115453.340000",
                "115453.950000",
                "115454.560000",
                "115455.170000",
                "115455.780000",
                "115456.390000",
                "115457.000000",
                "115457.610000",
                "115458.220000",
                "115458.830000",
                "115459.440000",
                "115500.050000",
                "115500.660000",
                "115501.270000",
                "115501.880000",
                "115502.490000",
                "115503.100000",
                "115503.710000",
                "115504.320000",
                "115504.930000",
                "115505.540000",
                "115506.150000",
                "115506.760000",
                "115507.370000",
                "115507.980000",
                "115508.590000",
                "115509.200000",
                "115509.810000",
                "115510.420000",
                "115511.030000",
                "115511.640000",
                "115512.250000",
                "115512.860000",
                "115513.470000",
                "115514.080000",
                "115514.690000",
                "115515.300000",
                "115515.910000",
                "115516.520000",
                "115517.130000",
                "115517.740000",
                "115518.350000",
                "115518.960000",
                "115519.570000",
                "115520.180000",
                "115520.790000",
                "115521.400000",
                "115522.010000",
                "115522.620000",
                "115523.230000",
                "115523.840000",
                "115524.450000",
                "115525.060000",
                "115525.670000",
                "115526.280000",
                "115526.890000",
                "115527.500000",
                "115528.110000",
                "115528.720000",
                "115529.330000"
            ],
            "ContentTime": [
                "115356.804000",
                "115356.807000",
                "115356.810000",
                "115356.812000",
                "115356.814000",
                "115356.817000",
                "115356.819000",
                "115356.821000",
                "115356.824000",
                "115356.826000",
                "115356.828000",
                "115356.831000",
                "115356.833000",
                "115356.841000",
                "115356.844000",
                "115356.846000",
                "115356.848000",
                "115356.851000",
                "115356.853000",
                "115356.856000",
                "115356.858000",
                "115356.866000",
                "115356.869000",
                "115356.871000",
                "115356.873000",
                "115356.876000",
                "115356.878000",
                "115356.881000",
                "115356.883000",
                "115356.886000",
                "115416.801000",
                "115416.803000",
                "115416.806000",
                "115416.808000",
                "115416.811000",
                "115416.813000",
                "115416.815000",
                "115416.819000",
                "115416.821000",
                "115416.824000",
                "115416.826000",
                "115416.828000",
                "115416.831000",
                "115416.833000",
                "115416.836000",
                "115416.838000",
                "115416.840000",
                "115416.843000",
                "115416.852000",
                "115416.855000",
                "115416.857000",
                "115416.859000",
                "115416.862000",
                "115416.864000",
                "115416.866000",
                "115416.869000",
                "115416.871000",
                "115416.874000",
                "115416.876000",
                "115416.878000",
                "115416.881000",
                "115416.883000",
                "115416.889000",
                "115436.799000",
                "115436.802000",
                "115436.804000",
                "115436.807000",
                "115436.809000",
                "115436.811000",
                "115436.814000",
                "115436.816000",
                "115436.819000",
                "115436.821000",
                "115436.823000",
                "115436.826000",
                "115436.828000",
                "115436.831000",
                "115436.833000",
                "115436.835000",
                "115436.838000",
                "115436.840000",
                "115436.842000",
                "115436.845000",
                "115436.847000",
                "115436.849000",
                "115436.852000",
                "115436.854000",
                "115436.857000",
                "115436.859000",
                "115436.861000",
                "115436.864000",
                "115436.866000",
                "115436.868000",
                "115436.871000",
                "115436.873000",
                "115436.875000",
                "115456.799000",
                "115456.802000",
                "115456.810000",
                "115456.812000",
                "115456.815000",
                "115456.817000",
                "115456.820000",
                "115456.822000",
                "115456.824000",
                "115456.827000",
                "115456.829000",
                "115456.832000",
                "115456.834000",
                "115456.836000",
                "115456.839000",
                "115456.841000",
                "115456.843000",
                "115456.846000",
                "115456.848000",
                "115456.850000",
                "115456.853000",
                "115456.855000",
                "115456.858000",
                "115456.860000",
                "115456.862000",
                "115456.865000",
                "115456.867000",
                "115456.870000",
                "115456.872000",
                "115456.874000",
                "115456.877000",
                "115456.879000",
                "115456.882000",
                "115516.799000",
                "115516.802000",
                "115516.804000",
                "115516.806000",
                "115516.809000",
                "115516.811000",
                "115516.814000",
                "115516.816000",
                "115516.818000",
                "115516.821000",
                "115516.823000",
                "115516.826000",
                "115516.828000",
                "115516.830000",
                "115516.833000",
                "115516.835000",
                "115516.838000",
                "115516.840000",
                "115516.842000",
                "115516.845000",
                "115516.847000",
                "115516.850000",
                "115516.852000",
                "115516.854000",
                "115516.857000",
                "115516.859000",
                "115516.861000",
                "115516.864000",
                "115516.866000",
                "115516.869000",
                "115516.871000",
                "115516.874000",
                "115516.876000",
                "115530.493000",
                "115530.495000",
                "115530.498000",
                "115530.500000",
                "115530.503000",
                "115530.505000",
                "115530.507000",
                "115530.510000",
                "115530.512000",
                "115530.515000",
                "115530.517000",
                "115530.521000",
                "115530.524000",
                "115530.526000",
                "115530.529000",
                "115530.531000",
                "115530.534000",
                "115530.536000",
                "115530.539000",
                "115530.541000",
                "115530.544000",
                "115530.548000"
            ],
            "InstanceCreationTime": [
                "115356.804000",
                "115356.807000",
                "115356.810000",
                "115356.812000",
                "115356.814000",
                "115356.817000",
                "115356.819000",
                "115356.821000",
                "115356.824000",
                "115356.826000",
                "115356.828000",
                "115356.831000",
                "115356.833000",
                "115356.841000",
                "115356.844000",
                "115356.846000",
                "115356.848000",
                "115356.851000",
                "115356.853000",
                "115356.856000",
                "115356.858000",
                "115356.866000",
                "115356.869000",
                "115356.871000",
                "115356.873000",
                "115356.876000",
                "115356.878000",
                "115356.881000",
                "115356.883000",
                "115356.886000",
                "115416.801000",
                "115416.803000",
                "115416.806000",
                "115416.808000",
                "115416.811000",
                "115416.813000",
                "115416.815000",
                "115416.819000",
                "115416.821000",
                "115416.824000",
                "115416.826000",
                "115416.828000",
                "115416.831000",
                "115416.833000",
                "115416.836000",
                "115416.838000",
                "115416.840000",
                "115416.843000",
                "115416.852000",
                "115416.855000",
                "115416.857000",
                "115416.859000",
                "115416.862000",
                "115416.864000",
                "115416.866000",
                "115416.869000",
                "115416.871000",
                "115416.874000",
                "115416.876000",
                "115416.878000",
                "115416.881000",
                "115416.883000",
                "115416.889000",
                "115436.799000",
                "115436.802000",
                "115436.804000",
                "115436.807000",
                "115436.809000",
                "115436.811000",
                "115436.814000",
                "115436.816000",
                "115436.819000",
                "115436.821000",
                "115436.823000",
                "115436.826000",
                "115436.828000",
                "115436.831000",
                "115436.833000",
                "115436.835000",
                "115436.838000",
                "115436.840000",
                "115436.842000",
                "115436.845000",
                "115436.847000",
                "115436.849000",
                "115436.852000",
                "115436.854000",
                "115436.857000",
                "115436.859000",
                "115436.861000",
                "115436.864000",
                "115436.866000",
                "115436.868000",
                "115436.871000",
                "115436.873000",
                "115436.875000",
                "115456.799000",
                "115456.802000",
                "115456.810000",
                "115456.812000",
                "115456.815000",
                "115456.817000",
                "115456.820000",
                "115456.822000",
                "115456.824000",
                "115456.827000",
                "115456.829000",
                "115456.832000",
                "115456.834000",
                "115456.836000",
                "115456.839000",
                "115456.841000",
                "115456.843000",
                "115456.846000",
                "115456.848000",
                "115456.850000",
                "115456.853000",
                "115456.855000",
                "115456.858000",
                "115456.860000",
                "115456.862000",
                "115456.865000",
                "115456.867000",
                "115456.870000",
                "115456.872000",
                "115456.874000",
                "115456.877000",
                "115456.879000",
                "115456.882000",
                "115516.799000",
                "115516.802000",
                "115516.804000",
                "115516.806000",
                "115516.809000",
                "115516.811000",
                "115516.814000",
                "115516.816000",
                "115516.818000",
                "115516.821000",
                "115516.823000",
                "115516.826000",
                "115516.828000",
                "115516.830000",
                "115516.833000",
                "115516.835000",
                "115516.838000",
                "115516.840000",
                "115516.842000",
                "115516.845000",
                "115516.847000",
                "115516.850000",
                "115516.852000",
                "115516.854000",
                "115516.857000",
                "115516.859000",
                "115516.861000",
                "115516.864000",
                "115516.866000",
                "115516.869000",
                "115516.871000",
                "115516.874000",
                "115516.876000",
                "115530.493000",
                "115530.495000",
                "115530.498000",
                "115530.500000",
                "115530.503000",
                "115530.505000",
                "115530.507000",
                "115530.510000",
                "115530.512000",
                "115530.515000",
                "115530.517000",
                "115530.521000",
                "115530.524000",
                "115530.526000",
                "115530.529000",
                "115530.531000",
                "115530.534000",
                "115530.536000",
                "115530.539000",
                "115530.541000",
                "115530.544000",
                "115530.548000"
            ],
            "InstanceNumber": [
                1,
                2,
                3,
                4,
                5,
                6,
                7,
                8,
                9,
                10,
                11,
                12,
                13,
                14,
                15,
                16,
                17,
                18,
                19,
                20,
                21,
                22,
                23,
                24,
                25,
                26,
                27,
                28,
                29,
                30,
                31,
                32,
                33,
                34,
                35,
                36,
                37,
                38,
                39,
                40,
                41,
                42,
                43,
