{"AcquisitionMatrixPE": 64, "AcquisitionNumber": 1, "AcquisitionTime": "13:43:51.692500", "BandwidthPerPixelPhaseEncode": 28.935, "BaseResolution": 64, "BodyPartExamined": "BRAIN", "CoilCombinationMethod": "Sum of Squares", "ConsistencyInfo": "N4_VE11E_LATEST_20181129", "ConversionSoftware": "dcm2niix", "ConversionSoftwareVersion": "v1.0.20230411", "DerivedVendorReportedEchoSpacing": 0.000540003, "DeviceSerialNumber": "166182", "DwellTime": 3.4e-06, "EchoTime": 0.032, "EchoTrainLength": 64, "EffectiveEchoSpacing": 0.000540003, "FlipAngle": 40, "HeudiconvVersion": "0.13.1", "ImageOrientationPatientDICOM": [0.995178, -0.0956839, 0.021569, 0.0979288, 0.981672, -0.163496], "ImageOrientationText": "Tra>Cor(-9.5)>Sag(0.3)", "ImageType": ["ORIGINAL", "PRIMARY", "M", "ND", "NORM", "MOSAIC"], "ImagingFrequency": 123.257543, "InPlanePhaseEncodingDirectionDICOM": "COL", "InstitutionAddress": "PEARSE STREET .,City,District,IE,D2", "InstitutionName": "TCIN", "InstitutionalDepartmentName": "MRI", "MRAcquisitionType": "2D", "MagneticFieldStrength": 3, "Manufacturer": "Siemens", "ManufacturersModelName": "Prisma", "Modality": "MR", "MultibandAccelerationFactor": 4, "NonlinearGradientCorrection": false, "PartialFourier": 1, "PatientPosition": "HFS", "PercentPhaseFOV": 100, "PercentSampling": 100, "PhaseEncodingDirection": "j-", "PhaseEncodingSteps": 64, "PhaseResolution": 1, "PixelBandwidth": 2300, "ProcedureStepDescription": "Rhodri^Head BOLD", "ProtocolName": "cmrr_mbep2d_bold_Pictures_AP", "PulseSequenceDetails": "%SiemensSeq%\\ep2d_bold", "ReceiveCoilActiveElements": "HC2,4,6,7;NC2;SC", "ReceiveCoilName": "SpecialPurpose_4", "ReconMatrixPE": 64, "RefLinesPE": 12, "RepetitionTime": 0.61, "SAR": 0.438627, "ScanOptions": "FS", "ScanningSequence": "EP", "SequenceName": "*epfid2d1_64", "SequenceVariant": "SK", "SeriesDescription": "cmrr_mbep2d_bold_Pictures_AP", "SeriesNumber": 5, "ShimSetting": [-3585, -7475, 3866, 952, -131, 333, -171, -54], "SliceThickness": 3, "SliceTiming": [0.2625, 0, 0.3275, 0.065, 0.3925, 0.13, 0.4575, 0.195, 0.5225, 0.2625, 0, 0.3275, 0.065, 0.3925, 0.13, 0.4575, 0.195, 0.5225, 0.2625, 0, 0.3275, 0.065, 0.3925, 0.13, 0.4575, 0.195, 0.5225, 0.2625, 0, 0.3275, 0.065, 0.3925, 0.13, 0.4575, 0.195, 0.5225], "SoftwareVersions": "syngo MR E11", "SpacingBetweenSlices": 3.3, "StationName": "AWP166182", "TaskName": "pictures", "TotalReadoutTime": 0.0340202, "TxRefAmp": 248.056, "dcmmeta_affine": [[-2.985534191131592, 0.2937864363193512, 0.018248189240694046, 86.41463470458984], [0.2870517075061798, 2.945014715194702, -0.5439045429229736, -104.02802276611328], [0.0647069662809372, 0.49048712849617004, 3.254817008972168, -112.39896392822266], [0.0, 0.0, 0.0, 1.0]], "dcmmeta_reorient_transform": [[0.0, -1.0, 0.0, 63.0], [1.0, 0.0, 0.0, 0.0], [0.0, 0.0, 1.0, 0.0], [0.0, 0.0, 0.0, 1.0]], "dcmmeta_shape": [64, 64, 36, 265], "dcmmeta_slice_dim": 2, "dcmmeta_version": 0.6, "global": {"const": {"AcquisitionMatrix": [64, 0, 0, 64], "AngioFlag": "N", "BitsAllocated": 16, "BitsStored": 12, "BodyPartExamined": "BRAIN", "Columns": 384, "EchoNumbers": 1, "EchoTime": 32.0, "EchoTrainLength": 64, "FlipAngle": 40.0, "HighBit": 11, "ImageOrientationPatient": [0.99517805882587, -0.0956839065735, 0.02156898825629, 0.09792881621702, 0.98167158440896, -0.1634957103973], "ImagePositionPatient": [-629.61448249243, -506.78199190885, -13.373445656616], "ImageType": ["ORIGINAL", "PRIMARY", "M", "ND", "NORM", "MOSAIC"], "ImagedNucleus": "1H", "ImagingFrequency": 123.257543, "InPlanePhaseEncodingDirection": "COL", "MRAcquisitionType": "2D", "MagneticFieldStrength": 3.0, "Manufacturer": "SIEMENS", "ManufacturerModelName": "Prisma", "Modality": "MR", "NumberOfAverages": 1.0, "NumberOfPhaseEncodingSteps": 64, "PercentPhaseFieldOfView": 100.0, "PercentSampling": 100.0, "PerformedProcedureStepStartTime": "133940.103000", "PhotometricInterpretation": "MONOCHROME2", "PixelBandwidth": 2300.0, "PixelRepresentation": 0, "PixelSpacing": [3.0, 3.0], "ProtocolName": "cmrr_mbep2d_bold_Pictures_AP", "RepetitionTime": 610.0, "Rows": 384, "SAR": 0.43862708362648, "SamplesPerPixel": 1, "ScanOptions": "FS", "ScanningSequence": "EP", "SequenceName": "*epfid2d1_64", "SequenceVariant": "SK", "SeriesDescription": "cmrr_mbep2d_bold_Pictures_AP", "SeriesNumber": 5, "SeriesTime": "134415.018000", "SliceLocation": -93.236315560214, "SliceThickness": 3.0, "SmallestImagePixelValue": 0, "SoftwareVersions": "syngo MR E11", "SpacingBetweenSlices": 3.2999999199493, "SpecificCharacterSet": "ISO_IR 100", "StudyID": "3", "StudyTime": "133940.063000", "TransmitCoilName": "Body", "VariableFlipAngleFlag": "N", "WindowCenterWidthExplanation": "Algo1"}, "slices": {}}, "time": {"samples": {"AcquisitionNumber": [1, 2, 3, 4, 5, 6, 7, 8, 9, 10, 11, 12, 13, 14, 15, 16, 17, 18, 19, 20, 21, 22, 23, 24, 25, 26, 27, 28, 29, 30, 31, 32, 33, 34, 35, 36, 37, 38, 39, 40, 41, 42, 43, 44, 45, 46, 47, 48, 49, 50, 51, 52, 53, 54, 55, 56, 57, 58, 59, 60, 61, 62, 63, 64, 65, 66, 67, 68, 69, 70, 71, 72, 73, 74, 75, 76, 77, 78, 79, 80, 81, 82, 83, 84, 85, 86, 87, 88, 89, 90, 91, 92, 93, 94, 95, 96, 97, 98, 99, 100, 101, 102, 103, 104, 105, 106, 107, 108, 109, 110, 111, 112, 113, 114, 115, 116, 117, 118, 119, 120, 121, 122, 123, 124, 125, 126, 127, 128, 129, 130, 131, 132, 133, 134, 135, 136, 137, 138, 139, 140, 141, 142, 143, 144, 145, 146, 147, 148, 149, 150, 151, 152, 153, 154, 155, 156, 157, 158, 159, 160, 161, 162, 163, 164, 165, 166, 167, 168, 169, 170, 171, 172, 173, 174, 175, 176, 177, 178, 179, 180, 181, 182, 183, 184, 185, 186, 187, 188, 189, 190, 191, 192, 193, 194, 195, 196, 197, 198, 199, 200, 201, 202, 203, 204, 205, 206, 207, 208, 209, 210, 211, 212, 213, 214, 215, 216, 217, 218, 219, 220, 221, 222, 223, 224, 225, 226, 227, 228, 229, 230, 231, 232, 233, 234, 235, 236, 237, 238, 239, 240, 241, 242, 243, 244, 245, 246, 247, 248, 249, 250, 251, 252, 253, 254, 255, 256, 257, 258, 259, 260, 261, 262, 263, 264, 265], "AcquisitionTime": ["134351.692500", "134352.302500", "134352.912500", "134353.522500", "134354.132500", "134354.742500", "134355.352500", "134355.962500", "134356.572500", "134357.182500", "134357.792500", "134358.402500", "134359.012500", "134359.622500", "134400.232500", "134400.842500", "134401.452500", "134402.062500", "134402.672500", "134403.282500", "134403.892500", "134404.502500", "134405.112500", "134405.722500", "134406.332500", "134406.942500", "134407.552500", "134408.162500", "134408.772500", "134409.382500", "134409.992500", "134410.602500", "134411.212500", "134411.822500", "134412.432500", "134413.042500", "134413.652500", "134414.262500", "134414.872500", "134415.482500", "134416.092500", "134416.702500", "134417.312500", "134417.922500", "134418.532500", "134419.142500", "134419.752500", "134420.362500", "134420.972500", "134421.582500", "134422.192500", "134422.802500", "134423.412500", "134424.022500", "134424.632500", "134425.242500", "134425.852500", "134426.462500", "134427.072500", "134427.682500", "134428.292500", "134428.902500", "134429.512500", "134430.122500", "134430.732500", "134431.342500", "134431.952500", "134432.562500", "134433.172500", "134433.782500", "134434.392500", "134435.002500", "134435.612500", "134436.222500", "134436.832500", "134437.442500", "134438.052500", "134438.662500", "134439.272500", "134439.882500", "134440.492500", "134441.102500", "134441.712500", "134442.322500", "134442.932500", "134443.542500", "134444.152500", "134444.762500", "134445.372500", "134445.982500", "134446.592500", "134447.202500", "134447.812500", "134448.422500", "134449.032500", "134449.642500", "134450.252500", "134450.862500", "134451.472500", "134452.082500", "134452.692500", "134453.302500", "134453.912500", "134454.522500", "134455.132500", "134455.742500", "134456.352500", "134456.962500", "134457.572500", "134458.182500", "134458.792500", "134459.402500", "134500.012500", "134500.622500", "134501.232500", "134501.842500", "134502.452500", "134503.062500", "134503.672500", "134504.282500", "134504.892500", "134505.502500", "134506.112500", "134506.722500", "134507.332500", "134507.942500", "134508.552500", "134509.162500", "134509.772500", "134510.382500", "134510.992500", "134511.602500", "134512.212500", "134512.822500", "134513.432500", "134514.042500", "134514.652500", "134515.262500", "134515.872500", "134516.482500", "134517.092500", "134517.702500", "134518.312500", "134518.922500", "134519.532500", "134520.142500", "134520.752500", "134521.362500", "134521.972500", "134522.582500", "134523.192500", "134523.802500", "134524.412500", "134525.022500", "134525.632500", "134526.242500", "134526.852500", "134527.462500", "134528.072500", "134528.682500", "134529.292500", "134529.902500", "134530.512500", "134531.122500", "134531.732500", "134532.342500", "134532.952500", "134533.562500", "134534.172500", "134534.782500", "134535.392500", "134536.002500", "134536.612500", "134537.222500", "134537.832500", "134538.442500", "134539.052500", "134539.662500", "134540.272500", "134540.882500", "134541.492500", "134542.102500", "134542.712500", "134543.322500", "134543.932500", "134544.542500", "134545.152500", "134545.762500", "134546.372500", "134546.982500", "134547.592500", "134548.202500", "134548.812500", "134549.422500", "134550.032500", "134550.642500", "134551.252500", "134551.862500", "134552.472500", "134553.082500", "134553.692500", "134554.302500", "134554.912500", "134555.522500", "134556.132500", "134556.742500", "134557.352500", "134557.962500", "134558.572500", "134559.182500", "134559.792500", "134600.402500", "134601.012500", "134601.622500", "134602.232500", "134602.842500", "134603.452500", "134604.062500", "134604.672500", "134605.282500", "134605.892500", "134606.502500", "134607.112500", "134607.722500", "134608.332500", "134608.942500", "134609.552500", "134610.162500", "134610.772500", "134611.382500", "134611.992500", "134612.602500", "134613.212500", "134613.822500", "134614.432500", "134615.042500", "134615.652500", "134616.262500", "134616.872500", "134617.482500", "134618.092500", "134618.702500", "134619.312500", "134619.922500", "134620.532500", "134621.142500", "134621.752500", "134622.362500", "134622.972500", "134623.582500", "134624.192500", "134624.802500", "134625.412500", "134626.022500", "134626.632500", "134627.242500", "134627.852500", "134628.462500", "134629.072500", "134629.682500", "134630.292500", "134630.902500", "134631.512500", "134632.122500", "134632.732500"], "ContentTime": ["134415.021000", "134415.025000", "134415.027000", "134415.029000", "134415.032000", "134415.034000", "134415.037000", "134415.039000", "134415.042000", "134415.050000", "134415.052000", "134415.055000", "134415.057000", "134415.059000", "134415.062000", "134415.064000", "134415.067000", "134415.069000", "134415.072000", "134415.074000", "134415.076000", "134415.079000", "134415.081000", "134415.084000", "134415.086000", "134415.088000", "134415.091000", "134415.093000", "134415.096000", "134415.098000", "134415.100000", "134415.103000", "134415.105000", "134415.108000", "134415.110000", "134415.113000", "134415.116000", "134435.031000", "134435.033000", "134435.036000", "134435.038000", "134435.041000", "134435.043000", "134435.045000", "134435.048000", "134435.050000", "134435.053000", "134435.055000", "134435.058000", "134435.061000", "134435.064000", "134435.075000", "134435.078000", "134435.080000", "134435.083000", "134435.085000", "134435.087000", "134435.090000", "134435.092000", "134435.095000", "134435.097000", "134435.099000", "134435.102000", "134435.104000", "134435.106000", "134435.109000", "134435.111000", "134435.113000", "134435.116000", "134455.017000", "134455.020000", "134455.022000", "134455.025000", "134455.027000", "134455.030000", "134455.032000", "134455.035000", "134455.037000", "134455.040000", "134455.043000", "134455.045000", "134455.048000", "134455.050000", "134455.052000", "134455.055000", "134455.057000", "134455.059000", "134455.062000", "134455.064000", "134455.067000", "134455.069000", "134455.072000", "134455.074000", "134455.077000", "134455.079000", "134455.085000", "134455.088000", "134455.090000", "134455.093000", "134455.095000", "134455.097000", "134455.100000", "134515.016000", "134515.019000", "134515.022000", "134515.024000", "134515.026000", "134515.029000", "134515.032000", "134515.034000", "134515.036000", "134515.039000", "134515.041000", "134515.044000", "134515.046000", "134515.049000", "134515.051000", "134515.054000", "134515.056000", "134515.058000", "134515.061000", "134515.063000", "134515.066000", "134515.068000", "134515.071000", "134515.073000", "134515.075000", "134515.078000", "134515.080000", "134515.083000", "134515.085000", "134515.088000", "134515.090000", "134515.092000", "134515.103000", "134535.016000", "134535.019000", "134535.022000", "134535.024000", "134535.027000", "134535.029000", "134535.032000", "134535.034000", "134535.036000", "134535.039000", "134535.041000", "134535.043000", "134535.046000", "134535.048000", "134535.051000", "134535.053000", "134535.055000", "134535.058000", "134535.060000", "134535.063000", "134535.065000", "134535.067000", "134535.070000", "134535.072000", "134535.074000", "134535.077000", "134535.079000", "134535.081000", "134535.084000", "134535.086000", "134535.089000", "134535.091000", "134535.093000", "134555.016000", "134555.019000", "134555.021000", "134555.024000", "134555.026000", "134555.029000", "134555.032000", "134555.034000", "134555.037000", "134555.039000", "134555.041000", "134555.044000", "134555.046000", "134555.049000", "134555.051000", "134555.053000", "134555.056000", "134555.058000", "134555.060000", "134555.063000", "134555.065000", "134555.068000", "134555.070000", "134555.072000", "134555.075000", "134555.077000", "134555.079000", "134555.082000", "134555.084000", "134555.087000", "134555.089000", "134555.091000", "134555.094000", "134615.016000", "134615.019000", "134615.022000", "134615.024000", "134615.026000", "134615.029000", "134615.031000", "134615.034000", "134615.036000", "134615.038000", "134615.041000", "134615.043000", "134615.046000", "134615.048000", "134615.050000", "134615.053000", "134615.055000", "134615.057000", "134615.060000", "134615.062000", "134615.065000", "134615.067000", "134615.069000", "134615.072000", "134615.074000", "134615.076000", "134615.079000", "134615.081000", "134615.084000", "134615.086000", "134615.088000", "134615.091000", "134634.817000", "134634.820000", "134634.823000", "134634.825000", "134634.827000", "134634.830000", "134634.832000", "134634.835000", "134634.837000", "134634.839000", "134634.842000", "134634.844000", "134634.847000", "134634.849000", "134634.852000", "134634.855000", "134634.859000", "134634.862000", "134634.865000", "134634.867000", "134634.870000", "134634.874000", "134634.877000", "134634.879000", "134634.882000", "134634.885000", "134634.888000", "134634.890000", "134634.893000", "134634.895000", "134634.898000", "134634.900000"], "InstanceCreationTime": ["134415.021000", "134415.025000", "134415.027000", "134415.029000", "134415.032000", "134415.034000", "134415.037000", "134415.039000", "134415.042000", "134415.050000", "134415.052000", "134415.055000", "134415.057000", "134415.059000", "134415.062000", "134415.064000", "134415.067000", "134415.069000", "134415.072000", "134415.074000", "134415.076000", "134415.079000", "134415.081000", "134415.084000", "134415.086000", "134415.088000", "134415.091000", "134415.093000", "134415.096000", "134415.098000", "134415.100000", "134415.103000", "134415.105000", "134415.108000", "134415.110000", "134415.113000", "134415.116000", "134435.031000", "134435.033000", "134435.036000", "134435.038000", "134435.041000", "134435.043000", "134435.045000", "134435.048000", "134435.050000", "134435.053000", "134435.055000", "134435.058000", "134435.061000", "134435.064000", "134435.075000", "134435.078000", "134435.080000", "134435.083000", "134435.085000", "134435.087000", "134435.090000", "134435.092000", "134435.095000", "134435.097000", "134435.099000", "134435.102000", "134435.104000", "134435.106000", "134435.109000", "134435.111000", "134435.113000", "134435.116000", "134455.017000", "134455.020000", "134455.022000", "134455.025000", "134455.027000", "134455.030000", "134455.032000", "134455.035000", "134455.037000", "134455.040000", "134455.043000", "134455.045000", "134455.048000", "134455.050000", "134455.052000", "134455.055000", "134455.057000", "134455.059000", "134455.062000", "134455.064000", "134455.067000", "134455.069000", "134455.072000", "134455.074000", "134455.077000", "134455.079000", "134455.085000", "134455.088000", "134455.090000", "134455.093000", "134455.095000", "134455.097000", "134455.100000", "134515.016000", "134515.019000", "134515.022000", "134515.024000", "134515.026000", "134515.029000", "134515.032000", "134515.034000", "134515.036000", "134515.039000", "134515.041000", "134515.044000", "134515.046000", "134515.049000", "134515.051000", "134515.054000", "134515.056000", "134515.058000", "134515.061000", "134515.063000", "134515.066000", "134515.068000", "134515.071000", "134515.073000", "134515.075000", "134515.078000", "134515.080000", "134515.083000", "134515.085000", "134515.088000", "134515.090000", "134515.092000", "134515.103000", "134535.016000", "134535.019000", "134535.022000", "134535.024000", "134535.027000", "134535.029000", "134535.032000", "134535.034000", "134535.036000", "134535.039000", "134535.041000", "134535.043000", "134535.046000", "134535.048000", "134535.051000", "134535.053000", "134535.055000", "134535.058000", "134535.060000", "134535.063000", "134535.065000", "134535.067000", "134535.070000", "134535.072000", "134535.074000", "134535.077000", "134535.079000", "134535.081000", "134535.084000", "134535.086000", "134535.089000", "134535.091000", "134535.093000", "134555.016000", "134555.019000", "134555.021000", "134555.024000", "134555.026000", "134555.029000", "134555.032000", "134555.034000", "134555.037000", "134555.039000", "134555.041000", "134555.044000", "134555.046000", "134555.049000", "134555.051000", "134555.053000", "134555.056000", "134555.058000", "134555.060000", "134555.063000", "134555.065000", "134555.068000", "134555.070000", "134555.072000", "134555.075000", "134555.077000", "134555.079000", "134555.082000", "134555.084000", "134555.087000", "134555.089000", "134555.091000", "134555.094000", "134615.016000", "134615.019000", "134615.022000", "134615.024000", "134615.026000", "134615.029000", "134615.031000", "134615.034000", "134615.036000", "134615.038000", "134615.041000", "134615.043000", "134615.046000", "134615.048000", "134615.050000", "134615.053000", "134615.055000", "134615.057000", "134615.060000", "134615.062000", "134615.065000", "134615.067000", "134615.069000", "134615.072000", "134615.074000", "134615.076000", "134615.079000", "134615.081000", "134615.084000", "134615.086000", "134615.088000", "134615.091000", "134634.817000", "134634.820000", "134634.823000", "134634.825000", "134634.827000", "134634.830000", "134634.832000", "134634.835000", "134634.837000", "134634.839000", "134634.842000", "134634.844000", "134634.847000", "134634.849000", "134634.852000", "134634.855000", "134634.859000", "134634.862000", "134634.865000", "134634.867000", "134634.870000", "134634.874000", "134634.877000", "134634.879000", "134634.882000", "134634.885000", "134634.888000", "134634.890000", "134634.893000", "134634.895000", "134634.898000", "134634.900000"], "InstanceNumber": [1, 2, 3, 4, 5, 6, 7, 8, 9, 10, 11, 12, 13, 14, 15, 16, 17, 18, 19, 20, 21, 22, 23, 24, 25, 26, 27, 28, 29, 30, 31, 32, 33, 34, 35, 36, 37, 38, 39, 40, 41, 42, 43, 44, 45, 46, 47, 48, 49, 50, 51, 52, 53, 54, 55, 56, 57, 58, 59, 60, 61, 62, 63, 64, 65, 66, 67, 68, 69, 70, 71, 72, 73, 74, 75, 76, 77, 78, 79, 80, 81, 82, 83, 84, 85, 86, 87, 88, 89, 90, 91, 92, 93, 94, 95, 96, 97, 98, 99, 100, 101, 102, 103, 104, 105, 106, 107, 108, 109, 110, 111, 112, 113, 114, 115, 116, 117, 118, 119, 120, 121, 122, 123, 124, 125, 126, 127, 128, 129, 130, 131, 132, 133, 134, 135, 136, 137, 138, 139, 140, 141, 142, 143, 144, 145, 146, 147, 148, 149, 150, 151, 152, 153, 154, 155, 156, 157, 158, 159, 160, 161, 162, 163, 164, 165, 166, 167, 168, 169, 170, 171, 172, 173, 174, 175, 176, 177, 178, 179, 180, 181, 182, 183, 184, 185, 186, 187, 188, 189, 190, 191, 192, 193, 194, 195, 196, 197, 198, 199, 200, 201, 202, 203, 204, 205, 206, 207, 208, 209, 210, 211, 212, 213, 214, 215, 216, 217, 218, 219, 220, 221, 222, 223, 224, 225, 226, 227, 228, 229, 230, 231, 232, 233, 234, 235, 236, 237, 238, 239, 240, 241, 242, 243, 244, 245, 246, 247, 248, 249, 250, 251, 252, 253, 254, 255, 256, 257, 258, 259, 260, 261, 262, 263, 264, 265], "LargestImagePixelValue": [478, 481, 456, 478, 451, 447, 444, 443, 450, 447, 446, 444, 449, 448, 446, 446, 447, 475, 455, 449, 449, 455, 457, 453, 447, 447, 449, 450, 447, 444, 445, 442, 443, 439, 453, 449, 445, 454, 460, 447, 459, 444, 442, 443, 443, 442, 440, 444, 442, 444, 441, 446, 439, 482, 442, 446, 437, 448, 442, 442, 443, 446, 457, 441, 444, 446, 444, 443, 437, 448, 452, 441, 446, 440, 439, 438, 467, 442, 440, 441, 440, 442, 446, 445, 442, 449, 438, 461, 439, 442, 452, 443, 438, 436, 444, 447, 444, 440, 440, 445, 443, 441, 444, 439, 440, 441, 456, 440, 441, 442, 448, 439, 441, 443, 449, 440, 441, 469, 440, 442, 443, 520, 440, 445, 440, 450, 444, 446, 461, 453, 444, 450, 451, 445, 446, 441, 441, 445, 439, 439, 443, 437, 440, 438, 440, 440, 441, 460, 487, 467, 463, 456, 441, 452, 460, 459, 452, 457, 455, 454, 451, 454, 451, 453, 450, 450, 451, 449, 450, 447, 450, 451, 440, 453, 445, 442, 450, 452, 457, 455, 498, 455, 453, 451, 453, 468, 453, 453, 452, 446, 443, 440, 451, 450, 454, 453, 454, 453, 488, 456, 454, 454, 452, 449, 452, 449, 472, 460, 441, 465, 451, 485, 453, 443, 456, 443, 436, 437, 437, 441, 438, 441, 438, 440, 435, 437, 436, 437, 439, 438, 448, 440, 440, 443, 439, 443, 442, 441, 443, 442, 442, 444, 443, 455, 439, 442, 442, 442, 443, 438, 440, 440, 440, 440, 442, 439, 439, 442, 441, 448, 442, 440, 440, 444, 502], "WindowCenter": [281.0, 285.0, 277.0, 284.0, 280.0, 280.0, 277.0, 280.0, 283.0, 283.0, 282.0, 283.0, 283.0, 282.0, 282.0, 283.0, 283.0, 284.0, 284.0, 283.0, 283.0, 284.0, 284.0, 283.0, 283.0, 283.0, 283.0, 283.0, 283.0, 283.0, 282.0, 283.0, 282.0, 281.0, 283.0, 283.0, 283.0, 283.0, 281.0, 285.0, 283.0, 281.0, 282.0, 281.0, 282.0, 283.0, 282.0, 282.0, 282.0, 283.0, 284.0, 283.0, 283.0, 284.0, 283.0, 283.0, 282.0, 283.0, 282.0, 282.0, 282.0, 282.0, 282.0, 282.0, 282.0, 282.0, 282.0, 282.0, 282.0, 282.0, 284.0, 282.0, 283.0, 283.0, 282.0, 282.0, 283.0, 284.0, 283.0, 282.0, 283.0, 282.0, 283.0, 283.0, 283.0, 283.0, 282.0, 282.0, 283.0, 283.0, 283.0, 283.0, 282.0, 282.0, 282.0, 282.0, 282.0, 283.0, 283.0, 283.0, 283.0, 283.0, 283.0, 283.0, 282.0, 283.0, 282.0, 282.0, 282.0, 283.0, 282.0, 282.0, 282.0, 282.0, 283.0, 283.0, 283.0, 284.0, 283.0, 282.0, 283.0, 284.0, 282.0, 282.0, 282.0, 282.0, 282.0, 283.0, 283.0, 283.0, 282.0, 284.0, 283.0, 282.0, 282.0, 282.0, 282.0, 282.0, 282.0, 282.0, 282.0, 282.0, 282.0, 283.0, 282.0, 283.0, 284.0, 282.0, 286.0, 284.0, 284.0, 283.0, 282.0, 284.0, 284.0, 283.0, 283.0, 284.0, 283.0, 282.0, 283.0, 282.0, 282.0, 283.0, 283.0, 283.0, 282.0, 282.0, 283.0, 284.0, 285.0, 284.0, 282.0, 286.0, 285.0, 283.0, 284.0, 283.0, 282.0, 282.0, 282.0, 281.0, 281.0, 281.0, 281.0, 281.0, 283.0, 282.0, 282.0, 283.0, 282.0, 283.0, 284.0, 283.0, 284.0, 284.0, 284.0, 284.0, 284.0, 283.0, 283.0, 283.0, 283.0, 282.0, 282.0, 282.0, 277.0, 282.0, 283.0, 285.0, 283.0, 283.0, 282.0, 282.0, 282.0, 281.0, 281.0, 281.0, 281.0, 281.0, 281.0, 282.0, 282.0, 281.0, 281.0, 281.0, 281.0, 281.0, 281.0, 282.0, 282.0, 282.0, 282.0, 282.0, 282.0, 282.0, 282.0, 283.0, 283.0, 283.0, 283.0, 283.0, 283.0, 283.0, 283.0, 282.0, 283.0, 283.0, 283.0, 283.0, 283.0, 283.0, 283.0, 283.0, 283.0, 283.0, 283.0, 282.0, 283.0, 282.0, 283.0, 282.0, 282.0, 283.0, 283.0], "WindowWidth": [617.0, 625.0, 609.0, 623.0, 615.0, 614.0, 608.0, 616.0, 620.0, 620.0, 619.0, 622.0, 622.0, 619.0, 620.0, 621.0, 621.0, 622.0, 623.0, 621.0, 621.0, 622.0, 622.0, 622.0, 621.0, 621.0, 621.0, 622.0, 621.0, 621.0, 620.0, 621.0, 619.0, 618.0, 621.0, 620.0, 621.0, 622.0, 617.0, 625.0, 620.0, 618.0, 619.0, 618.0, 619.0, 620.0, 619.0, 619.0, 620.0, 621.0, 623.0, 621.0, 621.0, 622.0, 622.0, 621.0, 620.0, 621.0, 620.0, 619.0, 619.0, 619.0, 620.0, 619.0, 619.0, 618.0, 618.0, 618.0, 619.0, 620.0, 623.0, 620.0, 620.0, 622.0, 620.0, 620.0, 621.0, 623.0, 621.0, 620.0, 620.0, 620.0, 621.0, 621.0, 622.0, 621.0, 620.0, 620.0, 621.0, 621.0, 621.0, 621.0, 620.0, 620.0, 620.0, 620.0, 619.0, 621.0, 620.0, 622.0, 620.0, 621.0, 622.0, 620.0, 620.0, 622.0, 620.0, 619.0, 620.0, 621.0, 619.0, 619.0, 619.0, 620.0, 621.0, 621.0, 620.0, 622.0, 621.0, 620.0, 621.0, 622.0, 619.0, 619.0, 619.0, 619.0, 619.0, 621.0, 621.0, 621.0, 620.0, 623.0, 620.0, 620.0, 619.0, 620.0, 619.0, 619.0, 619.0, 618.0, 620.0, 618.0, 620.0, 621.0, 620.0, 621.0, 623.0, 618.0, 627.0, 624.0, 623.0, 622.0, 620.0, 623.0, 623.0, 621.0, 621.0, 623.0, 621.0, 620.0, 621.0, 620.0, 620.0, 621.0, 621.0, 620.0, 620.0, 620.0, 621.0, 623.0, 624.0, 623.0, 619.0, 627.0, 625.0, 622.0, 622.0, 621.0, 619.0, 619.0, 618.0, 617.0, 617.0, 617.0, 617.0, 617.0, 620.0, 619.0, 619.0, 622.0, 618.0, 621.0, 623.0, 621.0, 623.0, 623.0, 623.0, 623.0, 623.0, 621.0, 621.0, 621.0, 621.0, 619.0, 620.0, 618.0, 610.0, 619.0, 621.0, 625.0, 622.0, 621.0, 619.0, 619.0, 619.0, 617.0, 617.0, 617.0, 617.0, 617.0, 618.0, 619.0, 619.0, 617.0, 618.0, 617.0, 617.0, 617.0, 618.0, 619.0, 619.0, 618.0, 618.0, 619.0, 619.0, 619.0, 619.0, 620.0, 620.0, 622.0, 621.0, 620.0, 621.0, 620.0, 621.0, 620.0, 621.0, 621.0, 621.0, 621.0, 621.0, 622.0, 621.0, 621.0, 621.0, 621.0, 621.0, 620.0, 621.0, 620.0, 621.0, 619.0, 619.0, 621.0, 620.0]}, "slices": {}}, "EventTimestamp": "13-45-20"}