{"AcquisitionMatrixPE": 64, "AcquisitionNumber": 1, "AcquisitionTime": "09:56:12.700000", "BandwidthPerPixelPhaseEncode": 28.935, "BaseResolution": 64, "BodyPartExamined": "BRAIN", "CoilCombinationMethod": "Sum of Squares", "ConsistencyInfo": "N4_VE11E_LATEST_20181129", "ConversionSoftware": "dcm2niix", "ConversionSoftwareVersion": "v1.0.20230411", "DerivedVendorReportedEchoSpacing": 0.000540003, "DeviceSerialNumber": "166182", "DwellTime": 3.4e-06, "EchoTime": 0.032, "EchoTrainLength": 64, "EffectiveEchoSpacing": 0.000540003, "FlipAngle": 40, "HeudiconvVersion": "0.13.1", "ImageOrientationPatientDICOM": [0.999621, 0.0269014, 0.00586225, -0.0273981, 0.992952, 0.115309], "ImageOrientationText": "Tra>Cor(6.6)>Sag(0.2)", "ImageType": ["ORIGINAL", "PRIMARY", "M", "ND", "NORM", "MOSAIC"], "ImagingFrequency": 123.255457, "InPlanePhaseEncodingDirectionDICOM": "COL", "InstitutionAddress": "PEARSE STREET .,City,District,IE,D2", "InstitutionName": "TCIN", "InstitutionalDepartmentName": "MRI", "MRAcquisitionType": "2D", "MagneticFieldStrength": 3, "Manufacturer": "Siemens", "ManufacturersModelName": "Prisma", "Modality": "MR", "MultibandAccelerationFactor": 4, "NonlinearGradientCorrection": false, "PartialFourier": 1, "PatientPosition": "HFS", "PercentPhaseFOV": 100, "PercentSampling": 100, "PhaseEncodingDirection": "j-", "PhaseEncodingSteps": 64, "PhaseResolution": 1, "PixelBandwidth": 2300, "ProcedureStepDescription": "Rhodri^Head BOLD", "ProtocolName": "cmrr_mbep2d_Pictures_AP_RDS", "PulseSequenceDetails": "%SiemensSeq%\\ep2d_bold", "ReceiveCoilActiveElements": "HC2,4,6,7;SC", "ReceiveCoilName": "SpecialPurpose_4", "ReconMatrixPE": 64, "RefLinesPE": 12, "RepetitionTime": 0.61, "SAR": 0.29926, "ScanOptions": "FS", "ScanningSequence": "EP", "SequenceName": "*epfid2d1_64", "SequenceVariant": "SK", "SeriesDescription": "cmrr_mbep2d_Pictures_AP_RDS", "SeriesNumber": 8, "ShimSetting": [-3592, -7487, 3684, 1081, -104, -106, 313, 178], "SliceThickness": 3, "SliceTiming": [0.2625, 0, 0.3275, 0.0675, 0.395, 0.1325, 0.46, 0.1975, 0.525, 0.2625, 0, 0.3275, 0.0675, 0.395, 0.1325, 0.46, 0.1975, 0.525, 0.2625, 0, 0.3275, 0.0675, 0.395, 0.1325, 0.46, 0.1975, 0.525, 0.2625, 0, 0.3275, 0.0675, 0.395, 0.1325, 0.46, 0.1975, 0.525], "SoftwareVersions": "syngo MR E11", "SpacingBetweenSlices": 3.3, "StationName": "AWP166182", "TaskName": "pictures", "TotalReadoutTime": 0.0340202, "TxRefAmp": 247.825, "dcmmeta_affine": [[-2.9988627433776855, -0.08219438046216965, 0.008972535841166973, 100.99507141113281], [-0.08070413768291473, 2.9788551330566406, 0.3809061348438263, -95.117919921875], [0.017586736008524895, -0.3459276258945465, 3.277930736541748, -96.58489227294922], [0.0, 0.0, 0.0, 1.0]], "dcmmeta_reorient_transform": [[0.0, -1.0, 0.0, 63.0], [1.0, 0.0, 0.0, 0.0], [0.0, 0.0, 1.0, 0.0], [0.0, 0.0, 0.0, 1.0]], "dcmmeta_shape": [64, 64, 36, 510], "dcmmeta_slice_dim": 2, "dcmmeta_version": 0.6, "global": {"const": {"AcquisitionMatrix": [64, 0, 0, 64], "AngioFlag": "N", "BitsAllocated": 16, "BitsStored": 12, "BodyPartExamined": "BRAIN", "Columns": 384, "EchoNumbers": 1, "EchoTime": 32.0, "EchoTrainLength": 64, "FlipAngle": 40.0, "HighBit": 11, "ImageOrientationPatient": [0.99962090310068, 0.02690137842827, 0.0058622455451, -0.027398127553, 0.99295172598389, 0.11530920376194], "ImagePositionPatient": [-562.48375553838, -582.07944875313, -176.54062729842], "ImageType": ["ORIGINAL", "PRIMARY", "M", "ND", "NORM", "MOSAIC"], "ImagedNucleus": "1H", "ImagingFrequency": 123.255457, "InPlanePhaseEncodingDirection": "COL", "MRAcquisitionType": "2D", "MagneticFieldStrength": 3.0, "Manufacturer": "SIEMENS", "ManufacturerModelName": "Prisma", "Modality": "MR", "NumberOfAverages": 1.0, "NumberOfPhaseEncodingSteps": 64, "PercentPhaseFieldOfView": 100.0, "PercentSampling": 100.0, "PerformedProcedureStepStartTime": "094110.720000", "PhotometricInterpretation": "MONOCHROME2", "PixelBandwidth": 2300.0, "PixelRepresentation": 0, "PixelSpacing": [3.0, 3.0], "ProtocolName": "cmrr_mbep2d_Pictures_AP_RDS", "RepetitionTime": 610.0, "Rows": 384, "SAR": 0.29926031209523, "SamplesPerPixel": 1, "ScanOptions": "FS", "ScanningSequence": "EP", "SequenceName": "*epfid2d1_64", "SequenceVariant": "SK", "SeriesDescription": "cmrr_mbep2d_Pictures_AP_RDS", "SeriesNumber": 8, "SeriesTime": "095630.958000", "SliceLocation": -106.6434561797, "SliceThickness": 3.0, "SmallestImagePixelValue": 0, "SoftwareVersions": "syngo MR E11", "SpacingBetweenSlices": 3.2999999070361, "SpecificCharacterSet": "ISO_IR 100", "StudyID": "1", "StudyTime": "094110.525000", "TransmitCoilName": "Body", "VariableFlipAngleFlag": "N", "WindowCenterWidthExplanation": "Algo1"}, "slices": {}}, "time": {"samples": {"AcquisitionNumber": [1, 2, 3, 4, 5, 6, 7, 8, 9, 10, 11, 12, 13, 14, 15, 16, 17, 18, 19, 20, 21, 22, 23, 24, 25, 26, 27, 28, 29, 30, 31, 32, 33, 34, 35, 36, 37, 38, 39, 40, 41, 42, 43, 44, 45, 46, 47, 48, 49, 50, 51, 52, 53, 54, 55, 56, 57, 58, 59, 60, 61, 62, 63, 64, 65, 66, 67, 68, 69, 70, 71, 72, 73, 74, 75, 76, 77, 78, 79, 80, 81, 82, 83, 84, 85, 86, 87, 88, 89, 90, 91, 92, 93, 94, 95, 96, 97, 98, 99, 100, 101, 102, 103, 104, 105, 106, 107, 108, 109, 110, 111, 112, 113, 114, 115, 116, 117, 118, 119, 120, 121, 122, 123, 124, 125, 126, 127, 128, 129, 130, 131, 132, 133, 134, 135, 136, 137, 138, 139, 140, 141, 142, 143, 144, 145, 146, 147, 148, 149, 150, 151, 152, 153, 154, 155, 156, 157, 158, 159, 160, 161, 162, 163, 164, 165, 166, 167, 168, 169, 170, 171, 172, 173, 174, 175, 176, 177, 178, 179, 180, 181, 182, 183, 184, 185, 186, 187, 188, 189, 190, 191, 192, 193, 194, 195, 196, 197, 198, 199, 200, 201, 202, 203, 204, 205, 206, 207, 208, 209, 210, 211, 212, 213, 214, 215, 216, 217, 218, 219, 220, 221, 222, 223, 224, 225, 226, 227, 228, 229, 230, 231, 232, 233, 234, 235, 236, 237, 238, 239, 240, 241, 242, 243, 244, 245, 246, 247, 248, 249, 250, 251, 252, 253, 254, 255, 256, 257, 258, 259, 260, 261, 262, 263, 264, 265, 266, 267, 268, 269, 270, 271, 272, 273, 274, 275, 276, 277, 278, 279, 280, 281, 282, 283, 284, 285, 286, 287, 288, 289, 290, 291, 292, 293, 294, 295, 296, 297, 298, 299, 300, 301, 302, 303, 304, 305, 306, 307, 308, 309, 310, 311, 312, 313, 314, 315, 316, 317, 318, 319, 320, 321, 322, 323, 324, 325, 326, 327, 328, 329, 330, 331, 332, 333, 334, 335, 336, 337, 338, 339, 340, 341, 342, 343, 344, 345, 346, 347, 348, 349, 350, 351, 352, 353, 354, 355, 356, 357, 358, 359, 360, 361, 362, 363, 364, 365, 366, 367, 368, 369, 370, 371, 372, 373, 374, 375, 376, 377, 378, 379, 380, 381, 382, 383, 384, 385, 386, 387, 388, 389, 390, 391, 392, 393, 394, 395, 396, 397, 398, 399, 400, 401, 402, 403, 404, 405, 406, 407, 408, 409, 410, 411, 412, 413, 414, 415, 416, 417, 418, 419, 420, 421, 422, 423, 424, 425, 426, 427, 428, 429, 430, 431, 432, 433, 434, 435, 436, 437, 438, 439, 440, 441, 442, 443, 444, 445, 446, 447, 448, 449, 450, 451, 452, 453, 454, 455, 456, 457, 458, 459, 460, 461, 462, 463, 464, 465, 466, 467, 468, 469, 470, 471, 472, 473, 474, 475, 476, 477, 478, 479, 480, 481, 482, 483, 484, 485, 486, 487, 488, 489, 490, 491, 492, 493, 494, 495, 496, 497, 498, 499, 500, 501, 502, 503, 504, 505, 506, 507, 508, 509, 510], "AcquisitionTime": ["095612.700000", "095613.310000", "095613.920000", "095614.530000", "095615.140000", "095615.750000", "095616.360000", "095616.970000", "095617.580000", "095618.190000", "095618.800000", "095619.410000", "095620.020000", "095620.630000", "095621.240000", "095621.850000", "095622.460000", "095623.070000", "095623.680000", "095624.290000", "095624.900000", "095625.510000", "095626.120000", "095626.730000", "095627.340000", "095627.950000", "095628.560000", "095629.170000", "095629.780000", "095630.390000", "095631.000000", "095631.610000", "095632.220000", "095632.830000", "095633.440000", "095634.050000", "095634.660000", "095635.270000", "095635.880000", "095636.490000", "095637.100000", "095637.710000", "095638.320000", "095638.930000", "095639.540000", "095640.150000", "095640.760000", "095641.370000", "095641.980000", "095642.590000", "095643.200000", "095643.810000", "095644.420000", "095645.030000", "095645.640000", "095646.250000", "095646.860000", "095647.470000", "095648.080000", "095648.690000", "095649.300000", "095649.910000", "095650.520000", "095651.130000", "095651.740000", "095652.350000", "095652.960000", "095653.570000", "095654.180000", "095654.790000", "095655.400000", "095656.010000", "095656.620000", "095657.230000", "095657.840000", "095658.450000", "095659.060000", "095659.670000", "095700.280000", "095700.890000", "095701.500000", "095702.110000", "095702.720000", "095703.330000", "095703.940000", "095704.550000", "095705.160000", "095705.770000", "095706.380000", "095706.990000", "095707.600000", "095708.210000", "095708.820000", "095709.430000", "095710.040000", "095710.650000", "095711.260000", "095711.870000", "095712.480000", "095713.090000", "095713.700000", "095714.310000", "095714.920000", "095715.530000", "095716.140000", "095716.750000", "095717.360000", "095717.970000", "095718.580000", "095719.190000", "095719.800000", "095720.410000", "095721.020000", "095721.630000", "095722.240000", "095722.850000", "095723.460000", "095724.070000", "095724.680000", "095725.290000", "095725.900000", "095726.510000", "095727.120000", "095727.730000", "095728.340000", "095728.950000", "095729.560000", "095730.170000", "095730.780000", "095731.390000", "095732.000000", "095732.610000", "095733.220000", "095733.830000", "095734.440000", "095735.050000", "095735.660000", "095736.270000", "095736.880000", "095737.490000", "095738.100000", "095738.710000", "095739.320000", "095739.930000", "095740.540000", "095741.150000", "095741.760000", "095742.370000", "095742.980000", "095743.590000", "095744.200000", "095744.810000", "095745.420000", "095746.030000", "095746.640000", "095747.250000", "095747.860000", "095748.470000", "095749.080000", "095749.690000", "095750.300000", "095750.910000", "095751.520000", "095752.130000", "095752.740000", "095753.350000", "095753.960000", "095754.570000", "095755.180000", "095755.790000", "095756.400000", "095757.010000", "095757.620000", "095758.230000", "095758.840000", "095759.450000", "095800.060000", "095800.670000", "095801.280000", "095801.890000", "095802.500000", "095803.110000", "095803.720000", "095804.330000", "095804.940000", "095805.550000", "095806.160000", "095806.770000", "095807.380000", "095807.990000", "095808.600000", "095809.210000", "095809.820000", "095810.430000", "095811.040000", "095811.650000", "095812.260000", "095812.870000", "095813.480000", "095814.090000", "095814.700000", "095815.310000", "095815.920000", "095816.530000", "095817.140000", "095817.750000", "095818.360000", "095818.970000", "095819.580000", "095820.190000", "095820.800000", "095821.410000", "095822.020000", "095822.630000", "095823.240000", "095823.850000", "095824.460000", "095825.070000", "095825.680000", "095826.290000", "095826.900000", "095827.510000", "095828.120000", "095828.730000", "095829.340000", "095829.950000", "095830.560000", "095831.170000", "095831.780000", "095832.390000", "095833.000000", "095833.610000", "095834.220000", "095834.830000", "095835.440000", "095836.050000", "095836.660000", "095837.270000", "095837.880000", "095838.490000", "095839.100000", "095839.710000", "095840.320000", "095840.930000", "095841.540000", "095842.150000", "095842.760000", "095843.370000", "095843.980000", "095844.590000", "095845.200000", "095845.810000", "095846.420000", "095847.030000", "095847.640000", "095848.250000", "095848.860000", "095849.470000", "095850.080000", "095850.690000", "095851.300000", "095851.910000", "095852.520000", "095853.130000", "095853.740000", "095854.350000", "095854.960000", "095855.570000", "095856.180000", "095856.790000", "095857.400000", "095858.010000", "095858.620000", "095859.230000", "095859.840000", "095900.450000", "095901.060000", "095901.670000", "095902.280000", "095902.890000", "095903.500000", "095904.110000", "095904.720000", "095905.330000", "095905.940000", "095906.550000", "095907.160000", "095907.770000", "095908.380000", "095908.990000", "095909.600000", "095910.210000", "095910.820000", "095911.430000", "095912.040000", "095912.650000", "095913.260000", "095913.870000", "095914.480000", "095915.090000", "095915.700000", "095916.310000", "095916.920000", "095917.530000", "095918.140000", "095918.750000", "095919.360000", "095919.970000", "095920.580000", "095921.190000", "095921.800000", "095922.410000", "095923.020000", "095923.630000", "095924.240000", "095924.850000", "095925.460000", "095926.070000", "095926.680000", "095927.290000", "095927.900000", "095928.510000", "095929.120000", "095929.730000", "095930.340000", "095930.950000", "095931.560000", "095932.170000", "095932.780000", "095933.390000", "095934.000000", "095934.610000", "095935.220000", "095935.830000", "095936.440000", "095937.050000", "095937.660000", "095938.270000", "095938.880000", "095939.490000", "095940.100000", "095940.710000", "095941.320000", "095941.930000", "095942.540000", "095943.150000", "095943.760000", "095944.370000", "095944.980000", "095945.590000", "095946.200000", "095946.810000", "095947.420000", "095948.030000", "095948.640000", "095949.250000", "095949.860000", "095950.470000", "095951.080000", "095951.690000", "095952.300000", "095952.910000", "095953.520000", "095954.130000", "095954.740000", "095955.350000", "095955.960000", "095956.570000", "095957.180000", "095957.790000", "095958.400000", "095959.010000", "095959.620000", "100000.230000", "100000.840000", "100001.450000", "100002.060000", "100002.670000", "100003.280000", "100003.890000", "100004.500000", "100005.110000", "100005.720000", "100006.330000", "100006.940000", "100007.550000", "100008.160000", "100008.770000", "100009.380000", "100009.990000", "100010.600000", "100011.210000", "100011.820000", "100012.430000", "100013.040000", "100013.650000", "100014.260000", "100014.870000", "100015.480000", "100016.090000", "100016.700000", "100017.310000", "100017.920000", "100018.530000", "100019.140000", "100019.750000", "100020.360000", "100020.970000", "100021.580000", "100022.190000", "100022.800000", "100023.410000", "100024.020000", "100024.630000", "100025.240000", "100025.850000", "100026.460000", "100027.070000", "100027.680000", "100028.290000", "100028.900000", "100029.510000", "100030.120000", "100030.730000", "100031.340000", "100031.950000", "100032.560000", "100033.170000", "100033.780000", "100034.390000", "100035.000000", "100035.610000", "100036.220000", "100036.830000", "100037.440000", "100038.050000", "100038.660000", "100039.270000", "100039.880000", "100040.490000", "100041.100000", "100041.710000", "100042.320000", "100042.930000", "100043.540000", "100044.150000", "100044.760000", "100045.370000", "100045.980000", "100046.590000", "100047.200000", "100047.810000", "100048.420000", "100049.030000", "100049.640000", "100050.250000", "100050.860000", "100051.470000", "100052.080000", "100052.690000", "100053.300000", "100053.910000", "100054.520000", "100055.130000", "100055.740000", "100056.350000", "100056.960000", "100057.570000", "100058.180000", "100058.790000", "100059.400000", "100100.010000", "100100.620000", "100101.230000", "100101.840000", "100102.450000", "100103.060000", "100103.670000", "100104.280000", "100104.890000", "100105.500000", "100106.110000", "100106.720000", "100107.330000", "100107.940000", "100108.550000", "100109.160000", "100109.770000", "100110.380000", "100110.990000", "100111.600000", "100112.210000", "100112.820000", "100113.430000", "100114.040000", "100114.650000", "100115.260000", "100115.870000", "100116.480000", "100117.090000", "100117.700000", "100118.310000", "100118.920000", "100119.530000", "100120.140000", "100120.750000", "100121.360000", "100121.970000", "100122.580000", "100123.190000"], "ContentTime": ["095630.961000", "095630.965000", "095630.967000", "095630.969000", "095630.972000", "095630.974000", "095630.977000", "095630.979000", "095630.981000", "095630.991000", "095630.993000", "095630.995000", "095630.998000", "095631.000000", "095631.003000", "095631.005000", "095631.008000", "095631.010000", "095631.012000", "095631.015000", "095631.017000", "095631.020000", "095631.029000", "095631.032000", "095631.034000", "095631.037000", "095631.039000", "095631.052000", "095631.054000", "095650.955000", "095650.958000", "095650.960000", "095650.963000", "095650.965000", "095650.968000", "095650.970000", "095650.972000", "095650.975000", "095650.977000", "095650.980000", "095650.982000", "095650.984000", "095650.987000", "095650.989000", "095650.992000", "095651.003000", "095651.005000", "095651.008000", "095651.010000", "095651.012000", "095651.015000", "095651.017000", "095651.020000", "095651.022000", "095651.025000", "095651.027000", "095651.029000", "095651.032000", "095651.034000", "095651.037000", "095651.039000", "095651.050000", "095710.955000", "095710.958000", "095710.960000", "095710.963000", "095710.965000", "095710.968000", "095710.970000", "095710.973000", "095710.975000", "095710.977000", "095710.980000", "095710.982000", "095710.985000", "095710.987000", "095710.990000", "095710.992000", "095710.995000", "095710.997000", "095711.005000", "095711.007000", "095711.009000", "095711.012000", "095711.014000", "095711.017000", "095711.019000", "095711.022000", "095711.024000", "095711.026000", "095711.029000", "095711.031000", "095711.034000", "095711.036000", "095711.038000", "095730.955000", "095730.958000", "095730.960000", "095730.963000", "095730.965000", "095730.967000", "095730.970000", "095730.972000", "095730.975000", "095730.977000", "095730.979000", "095730.982000", "095730.984000", "095730.987000", "095730.989000", "095730.992000", "095730.994000", "095730.996000", "095731.000000", "095731.002000", "095731.005000", "095731.007000", "095731.009000", "095731.012000", "095731.014000", "095731.017000", "095731.019000", "095731.022000", "095731.024000", "095731.027000", "095731.029000", "095731.032000", "095750.955000", "095750.958000", "095750.960000", "095750.963000", "095750.965000", "095750.968000", "095750.970000", "095750.972000", "095750.975000", "095750.977000", "095750.980000", "095750.982000", "095750.985000", "095750.987000", "095750.989000", "095750.992000", "095750.995000", "095750.997000", "095751.001000", "095751.003000", "095751.006000", "095751.008000", "095751.011000", "095751.013000", "095751.016000", "095751.018000", "095751.020000", "095751.023000", "095751.025000", "095751.027000", "095751.030000", "095751.032000", "095751.035000", "095810.955000", "095810.958000", "095810.960000", "095810.963000", "095810.965000", "095810.968000", "095810.970000", "095810.973000", "095810.975000", "095810.978000", "095810.980000", "095810.983000", "095810.985000", "095810.988000", "095810.990000", "095810.993000", "095810.995000", "095810.998000", "095811.001000", "095811.003000", "095811.006000", "095811.008000", "095811.011000", "095811.013000", "095811.016000", "095811.018000", "095811.027000", "095811.029000", "095811.032000", "095811.034000", "095811.037000", "095811.039000", "095811.041000", "095830.959000", "095830.964000", "095830.966000", "095830.969000", "095830.971000", "095830.975000", "095830.977000", "095830.980000", "095830.982000", "095830.985000", "095830.988000", "095830.990000", "095830.993000", "095831.001000", "095831.004000", "095831.006000", "095831.009000", "095831.018000", "095831.021000", "095831.023000", "095831.026000", "095831.035000", "095831.038000", "095831.050000", "095831.053000", "095831.056000", "095831.060000", "095831.063000", "095831.066000", "095831.072000", "095831.075000", "095831.077000", "095831.080000", "095850.956000", "095850.959000", "095850.961000", "095850.963000", "095850.966000", "095850.968000", "095850.971000", "095850.973000", "095850.976000", "095850.978000", "095850.981000", "095850.983000", "095850.985000", "095850.988000", "095850.990000", "095850.993000", "095850.995000", "095850.998000", "095851.000000", "095851.003000", "095851.005000", "095851.008000", "095851.010000", "095851.012000", "095851.015000", "095851.017000", "095851.020000", "095851.022000", "095851.025000", "095851.027000", "095851.030000", "095851.032000", "095851.034000", "095910.955000", "095910.958000", "095910.961000", "095910.963000", "095910.965000", "095910.968000", "095910.970000", "095910.973000", "095910.975000", "095910.978000", "095910.980000", "095910.982000", "095910.985000", "095910.987000", "095910.989000", "095910.992000", "095910.994000", "095910.997000", "095911.000000", "095911.003000", "095911.005000", "095911.008000", "095911.010000", "095911.013000", "095911.015000", "095911.017000", "095911.020000", "095911.022000", "095911.025000", "095911.027000", "095911.030000", "095911.032000", "095930.955000", "095930.958000", "095930.960000", "095930.963000", "095930.965000", "095930.968000", "095930.970000", "095930.973000", "095930.975000", "095930.978000", "095930.981000", "095930.983000", "095930.986000", "095930.988000", "095930.990000", "095930.993000", "095930.995000", "095930.998000", "095931.001000", "095931.004000", "095931.006000", "095931.008000", "095931.011000", "095931.013000", "095931.016000", "095931.018000", "095931.020000", "095931.023000", "095931.025000", "095931.028000", "095931.030000", "095931.033000", "095931.035000", "095950.955000", "095950.958000", "095950.961000", "095950.963000", "095950.965000", "095950.968000", "095950.971000", "095950.973000", "095950.975000", "095950.978000", "095950.981000", "095950.983000", "095950.985000", "095950.988000", "095950.990000", "095950.993000", "095950.996000", "095950.998000", "095951.002000", "095951.004000", "095951.007000", "095951.009000", "095951.011000", "095951.014000", "095951.016000", "095951.018000", "095951.021000", "095951.023000", "095951.026000", "095951.028000", "095951.031000", "095951.033000", "095951.035000", "100010.955000", "100010.958000", "100010.960000", "100010.963000", "100010.965000", "100010.968000", "100010.970000", "100010.972000", "100010.975000", "100010.977000", "100010.980000", "100010.982000", "100010.985000", "100010.987000", "100010.989000", "100010.992000", "100010.994000", "100010.997000", "100011.000000", "100011.003000", "100011.005000", "100011.008000", "100011.010000", "100011.019000", "100011.021000", "100011.024000", "100011.026000", "100011.028000", "100011.031000", "100011.033000", "100011.036000", "100011.038000", "100011.040000", "100030.955000", "100030.958000", "100030.960000", "100030.963000", "100030.965000", "100030.968000", "100030.970000", "100030.972000", "100030.975000", "100030.977000", "100030.980000", "100030.982000", "100030.985000", "100030.987000", "100030.990000", "100030.992000", "100030.995000", "100030.997000", "100031.001000", "100031.003000", "100031.006000", "100031.008000", "100031.011000", "100031.013000", "100031.015000", "100031.018000", "100031.020000", "100031.023000", "100031.025000", "100031.028000", "100031.030000", "100031.032000", "100031.035000", "100050.955000", "100050.958000", "100050.961000", "100050.963000", "100050.965000", "100050.968000", "100050.970000", "100050.973000", "100050.975000", "100050.978000", "100050.980000", "100050.982000", "100050.985000", "100050.987000", "100050.990000", "100050.992000", "100050.995000", "100050.997000", "100051.001000", "100051.003000", "100051.006000", "100051.008000", "100051.011000", "100051.013000", "100051.015000", "100051.018000", "100051.020000", "100051.023000", "100051.025000", "100051.027000", "100051.030000", "100051.032000", "100110.956000", "100110.959000", "100110.961000", "100110.964000", "100110.966000", "100110.968000", "100110.971000", "100110.973000", "100110.976000", "100110.987000", "100110.990000", "100110.992000", "100110.995000", "100110.997000", "100110.999000", "100111.002000", "100111.004000", "100111.007000", "100111.009000", "100111.012000", "100111.014000", "100111.017000", "100111.019000", "100111.022000", "100111.024000", "100111.027000", "100111.029000", "100111.032000", "100111.034000", "100111.036000", "100111.039000", "100111.041000", "100111.044000", "100123.956000", "100123.959000", "100123.962000", "100123.964000", "100123.967000", "100123.969000", "100123.972000", "100123.974000", "100123.977000", "100123.979000", "100123.982000", "100123.984000", "100123.987000", "100123.989000", "100123.991000", "100123.994000", "100123.996000", "100124.000000", "100124.002000", "100124.005000", "100124.007000", "100124.010000"], "InstanceCreationTime": ["095630.961000", "095630.965000", "095630.967000", "095630.969000", "095630.972000", "095630.974000", "095630.977000", "095630.979000", "095630.981000", "095630.991000", "095630.993000", "095630.995000", "095630.998000", "095631.000000", "095631.003000", "095631.005000", "095631.008000", "095631.010000", "095631.012000", "095631.015000", "095631.017000", "095631.020000", "095631.029000", "095631.032000", "095631.034000", "095631.037000", "095631.039000", "095631.052000", "095631.054000", "095650.955000", "095650.958000", "095650.960000", "095650.963000", "095650.965000", "095650.968000", "095650.970000", "095650.972000", "095650.975000", "095650.977000", "095650.980000", "095650.982000", "095650.984000", "095650.987000", "095650.989000", "095650.992000", "095651.003000", "095651.005000", "095651.008000", "095651.010000", "095651.012000", "095651.015000", "095651.017000", "095651.020000", "095651.022000", "095651.025000", "095651.027000", "095651.029000", "095651.032000", "095651.034000", "095651.037000", "095651.039000", "095651.050000", "095710.955000", "095710.958000", "095710.960000", "095710.963000", "095710.965000", "095710.968000", "095710.970000", "095710.973000", "095710.975000", "095710.977000", "095710.980000", "095710.982000", "095710.985000", "095710.987000", "095710.990000", "095710.992000", "095710.995000", "095710.997000", "095711.005000", "095711.007000", "095711.009000", "095711.012000", "095711.014000", "095711.017000", "095711.019000", "095711.022000", "095711.024000", "095711.026000", "095711.029000", "095711.031000", "095711.034000", "095711.036000", "095711.038000", "095730.955000", "095730.958000", "095730.960000", "095730.963000", "095730.965000", "095730.967000", "095730.970000", "095730.972000", "095730.975000", "095730.977000", "095730.979000", "095730.982000", "095730.984000", "095730.987000", "095730.989000", "095730.992000", "095730.994000", "095730.996000", "095731.000000", "095731.002000", "095731.005000", "095731.007000", "095731.009000", "095731.012000", "095731.014000", "095731.017000", "095731.019000", "095731.022000", "095731.024000", "095731.027000", "095731.029000", "095731.032000", "095750.955000", "095750.958000", "095750.960000", "095750.963000", "095750.965000", "095750.968000", "095750.970000", "095750.972000", "095750.975000", "095750.977000", "095750.980000", "095750.982000", "095750.985000", "095750.987000", "095750.989000", "095750.992000", "095750.995000", "095750.997000", "095751.001000", "095751.003000", "095751.006000", "095751.008000", "095751.011000", "095751.013000", "095751.016000", "095751.018000", "095751.020000", "095751.023000", "095751.025000", "095751.027000", "095751.030000", "095751.032000", "095751.035000", "095810.955000", "095810.958000", "095810.960000", "095810.963000", "095810.965000", "095810.968000", "095810.970000", "095810.973000", "095810.975000", "095810.978000", "095810.980000", "095810.983000", "095810.985000", "095810.988000", "095810.990000", "095810.993000", "095810.995000", "095810.998000", "095811.001000", "095811.003000", "095811.006000", "095811.008000", "095811.011000", "095811.013000", "095811.016000", "095811.018000", "095811.027000", "095811.029000", "095811.032000", "095811.034000", "095811.037000", "095811.039000", "095811.041000", "095830.959000", "095830.964000", "095830.966000", "095830.969000", "095830.971000", "095830.975000", "095830.977000", "095830.980000", "095830.982000", "095830.985000", "095830.988000", "095830.990000", "095830.993000", "095831.001000", "095831.004000", "095831.006000", "095831.009000", "095831.018000", "095831.021000", "095831.023000", "095831.026000", "095831.035000", "095831.038000", "095831.050000", "095831.053000", "095831.056000", "095831.060000", "095831.063000", "095831.066000", "095831.072000", "095831.075000", "095831.077000", "095831.080000", "095850.956000", "095850.959000", "095850.961000", "095850.963000", "095850.966000", "095850.968000", "095850.971000", "095850.973000", "095850.976000", "095850.978000", "095850.981000", "095850.983000", "095850.985000", "095850.988000", "095850.990000", "095850.993000", "095850.995000", "095850.998000", "095851.000000", "095851.003000", "095851.005000", "095851.008000", "095851.010000", "095851.012000", "095851.015000", "095851.017000", "095851.020000", "095851.022000", "095851.025000", "095851.027000", "095851.030000", "095851.032000", "095851.034000", "095910.955000", "095910.958000", "095910.961000", "095910.963000", "095910.965000", "095910.968000", "095910.970000", "095910.973000", "095910.975000", "095910.978000", "095910.980000", "095910.982000", "095910.985000", "095910.987000", "095910.989000", "095910.992000", "095910.994000", "095910.997000", "095911.000000", "095911.003000", "095911.005000", "095911.008000", "095911.010000", "095911.013000", "095911.015000", "095911.017000", "095911.020000", "095911.022000", "095911.025000", "095911.027000", "095911.030000", "095911.032000", "095930.955000", "095930.958000", "095930.960000", "095930.963000", "095930.965000", "095930.968000", "095930.970000", "095930.973000", "095930.975000", "095930.978000", "095930.981000", "095930.983000", "095930.986000", "095930.988000", "095930.990000", "095930.993000", "095930.995000", "095930.998000", "095931.001000", "095931.004000", "095931.006000", "095931.008000", "095931.011000", "095931.013000", "095931.016000", "095931.018000", "095931.020000", "095931.023000", "095931.025