{"AcquisitionMatrixPE": 64, "AcquisitionNumber": 1, "AcquisitionTime": "15:38:22.717500", "BandwidthPerPixelPhaseEncode": 28.935, "BaseResolution": 64, "BodyPartExamined": "BRAIN", "CoilCombinationMethod": "Sum of Squares", "ConsistencyInfo": "N4_VE11E_LATEST_20181129", "ConversionSoftware": "dcm2niix", "ConversionSoftwareVersion": "v1.0.20230411", "DerivedVendorReportedEchoSpacing": 0.000540003, "DeviceSerialNumber": "166182", "DwellTime": 3.4e-06, "EchoTime": 0.032, "EchoTrainLength": 64, "EffectiveEchoSpacing": 0.000540003, "FlipAngle": 40, "HeudiconvVersion": "0.13.1", "ImageOrientationPatientDICOM": [0.997887, -0.00931802, -0.0642987, -0.000870772, 0.987655, -0.156643], "ImageOrientationText": "Tra>Cor(-9.0)>Sag(-3.7)", "ImageType": ["ORIGINAL", "PRIMARY", "M", "ND", "NORM", "MOSAIC"], "ImagingFrequency": 123.256414, "InPlanePhaseEncodingDirectionDICOM": "COL", "InstitutionAddress": "PEARSE STREET .,City,District,IE,D2", "InstitutionName": "TCIN", "InstitutionalDepartmentName": "MRI", "MRAcquisitionType": "2D", "MagneticFieldStrength": 3, "Manufacturer": "Siemens", "ManufacturersModelName": "Prisma", "Modality": "MR", "MultibandAccelerationFactor": 4, "NonlinearGradientCorrection": false, "PartialFourier": 1, "PatientPosition": "HFS", "PercentPhaseFOV": 100, "PercentSampling": 100, "PhaseEncodingDirection": "j-", "PhaseEncodingSteps": 64, "PhaseResolution": 1, "PixelBandwidth": 2300, "ProcedureStepDescription": "Rhodri^Head BOLD", "ProtocolName": "cmrr_mbep2d_Pictures_AP_RDS", "PulseSequenceDetails": "%SiemensSeq%\\ep2d_bold", "ReceiveCoilActiveElements": "HC2,4,6,7", "ReceiveCoilName": "HeadNeck_64", "ReconMatrixPE": 64, "RefLinesPE": 12, "RepetitionTime": 0.61, "SAR": 0.161316, "ScanOptions": "FS", "ScanningSequence": "EP", "SequenceName": "*epfid2d1_64", "SequenceVariant": "SK", "SeriesDescription": "cmrr_mbep2d_Pictures_AP_RDS", "SeriesNumber": 18, "ShimSetting": [-3638, -7472, 3990, 714, 0, 633, 319, 24], "SliceThickness": 3, "SliceTiming": [0.2625, 0, 0.33, 0.0675, 0.395, 0.1325, 0.46, 0.1975, 0.525, 0.2625, 0, 0.33, 0.0675, 0.395, 0.1325, 0.46, 0.1975, 0.525, 0.2625, 0, 0.33, 0.0675, 0.395, 0.1325, 0.46, 0.1975, 0.525, 0.2625, 0, 0.33, 0.0675, 0.395, 0.1325, 0.46, 0.1975, 0.525], "SoftwareVersions": "syngo MR E11", "SpacingBetweenSlices": 3.3, "StationName": "AWP166182", "TaskName": "pictures", "TotalReadoutTime": 0.0340202, "TxRefAmp": 228.92, "dcmmeta_affine": [[-2.993661642074585, -0.0026123174466192722, -0.21438294649124146, 99.80549621582031], [0.027954047545790672, 2.9629650115966797, -0.5160132646560669, -91.2693099975586], [-0.19289609789848328, 0.4699278771877289, 3.2523484230041504, -79.27943420410156], [0.0, 0.0, 0.0, 1.0]], "dcmmeta_reorient_transform": [[0.0, -1.0, 0.0, 63.0], [1.0, 0.0, 0.0, 0.0], [0.0, 0.0, 1.0, 0.0], [0.0, 0.0, 0.0, 1.0]], "dcmmeta_shape": [64, 64, 36, 510], "dcmmeta_slice_dim": 2, "dcmmeta_version": 0.6, "global": {"const": {"AcquisitionMatrix": [64, 0, 0, 64], "AngioFlag": "N", "BitsAllocated": 16, "BitsStored": 12, "BodyPartExamined": "BRAIN", "Columns": 384, "EchoNumbers": 1, "EchoTime": 32.0, "EchoTrainLength": 64, "FlipAngle": 40.0, "HighBit": 11, "ImageOrientationPatient": [0.99788719402124, -0.0093180156256, -0.0642986982233, -0.000870772479, 0.98765496439908, -0.1566426284673], "ImagePositionPatient": [-578.20880360737, -564.99921016474, 56.377858165465], "ImageType": ["ORIGINAL", "PRIMARY", "M", "ND", "NORM", "MOSAIC"], "ImagedNucleus": "1H", "ImagingFrequency": 123.256414, "InPlanePhaseEncodingDirection": "COL", "MRAcquisitionType": "2D", "MagneticFieldStrength": 3.0, "Manufacturer": "SIEMENS", "ManufacturerModelName": "Prisma", "Modality": "MR", "NumberOfAverages": 1.0, "NumberOfPhaseEncodingSteps": 64, "PercentPhaseFieldOfView": 100.0, "PercentSampling": 100.0, "PerformedProcedureStepStartTime": "142330.121000", "PhotometricInterpretation": "MONOCHROME2", "PixelBandwidth": 2300.0, "PixelRepresentation": 0, "PixelSpacing": [3.0, 3.0], "ProtocolName": "cmrr_mbep2d_Pictures_AP_RDS", "RepetitionTime": 610.0, "Rows": 384, "SAR": 0.161316064031, "SamplesPerPixel": 1, "ScanOptions": "FS", "ScanningSequence": "EP", "SequenceName": "*epfid2d1_64", "SequenceVariant": "SK", "SeriesDescription": "cmrr_mbep2d_Pictures_AP_RDS", "SeriesNumber": 18, "SeriesTime": "153854.519000", "SliceLocation": -70.346898167701, "SliceThickness": 3.0, "SmallestImagePixelValue": 0, "SoftwareVersions": "syngo MR E11", "SpacingBetweenSlices": 3.3000000169032, "SpecificCharacterSet": "ISO_IR 100", "StudyID": "1", "StudyTime": "142330.044000", "TransmitCoilName": "Body", "VariableFlipAngleFlag": "N", "WindowCenterWidthExplanation": "Algo1"}, "slices": {}}, "time": {"samples": {"AcquisitionNumber": [1, 2, 3, 4, 5, 6, 7, 8, 9, 10, 11, 12, 13, 14, 15, 16, 17, 18, 19, 20, 21, 22, 23, 24, 25, 26, 27, 28, 29, 30, 31, 32, 33, 34, 35, 36, 37, 38, 39, 40, 41, 42, 43, 44, 45, 46, 47, 48, 49, 50, 51, 52, 53, 54, 55, 56, 57, 58, 59, 60, 61, 62, 63, 64, 65, 66, 67, 68, 69, 70, 71, 72, 73, 74, 75, 76, 77, 78, 79, 80, 81, 82, 83, 84, 85, 86, 87, 88, 89, 90, 91, 92, 93, 94, 95, 96, 97, 98, 99, 100, 101, 102, 103, 104, 105, 106, 107, 108, 109, 110, 111, 112, 113, 114, 115, 116, 117, 118, 119, 120, 121, 122, 123, 124, 125, 126, 127, 128, 129, 130, 131, 132, 133, 134, 135, 136, 137, 138, 139, 140, 141, 142, 143, 144, 145, 146, 147, 148, 149, 150, 151, 152, 153, 154, 155, 156, 157, 158, 159, 160, 161, 162, 163, 164, 165, 166, 167, 168, 169, 170, 171, 172, 173, 174, 175, 176, 177, 178, 179, 180, 181, 182, 183, 184, 185, 186, 187, 188, 189, 190, 191, 192, 193, 194, 195, 196, 197, 198, 199, 200, 201, 202, 203, 204, 205, 206, 207, 208, 209, 210, 211, 212, 213, 214, 215, 216, 217, 218, 219, 220, 221, 222, 223, 224, 225, 226, 227, 228, 229, 230, 231, 232, 233, 234, 235, 236, 237, 238, 239, 240, 241, 242, 243, 244, 245, 246, 247, 248, 249, 250, 251, 252, 253, 254, 255, 256, 257, 258, 259, 260, 261, 262, 263, 264, 265, 266, 267, 268, 269, 270, 271, 272, 273, 274, 275, 276, 277, 278, 279, 280, 281, 282, 283, 284, 285, 286, 287, 288, 289, 290, 291, 292, 293, 294, 295, 296, 297, 298, 299, 300, 301, 302, 303, 304, 305, 306, 307, 308, 309, 310, 311, 312, 313, 314, 315, 316, 317, 318, 319, 320, 321, 322, 323, 324, 325, 326, 327, 328, 329, 330, 331, 332, 333, 334, 335, 336, 337, 338, 339, 340, 341, 342, 343, 344, 345, 346, 347, 348, 349, 350, 351, 352, 353, 354, 355, 356, 357, 358, 359, 360, 361, 362, 363, 364, 365, 366, 367, 368, 369, 370, 371, 372, 373, 374, 375, 376, 377, 378, 379, 380, 381, 382, 383, 384, 385, 386, 387, 388, 389, 390, 391, 392, 393, 394, 395, 396, 397, 398, 399, 400, 401, 402, 403, 404, 405, 406, 407, 408, 409, 410, 411, 412, 413, 414, 415, 416, 417, 418, 419, 420, 421, 422, 423, 424, 425, 426, 427, 428, 429, 430, 431, 432, 433, 434, 435, 436, 437, 438, 439, 440, 441, 442, 443, 444, 445, 446, 447, 448, 449, 450, 451, 452, 453, 454, 455, 456, 457, 458, 459, 460, 461, 462, 463, 464, 465, 466, 467, 468, 469, 470, 471, 472, 473, 474, 475, 476, 477, 478, 479, 480, 481, 482, 483, 484, 485, 486, 487, 488, 489, 490, 491, 492, 493, 494, 495, 496, 497, 498, 499, 500, 501, 502, 503, 504, 505, 506, 507, 508, 509, 510], "AcquisitionTime": ["153822.717500", "153823.327500", "153823.937500", "153824.547500", "153825.157500", "153825.767500", "153826.377500", "153826.987500", "153827.597500", "153828.207500", "153828.817500", "153829.427500", "153830.037500", "153830.647500", "153831.257500", "153831.867500", "153832.477500", "153833.087500", "153833.697500", "153834.307500", "153834.917500", "153835.527500", "153836.137500", "153836.747500", "153837.357500", "153837.967500", "153838.577500", "153839.187500", "153839.797500", "153840.407500", "153841.017500", "153841.627500", "153842.237500", "153842.847500", "153843.457500", "153844.067500", "153844.677500", "153845.287500", "153845.897500", "153846.507500", "153847.117500", "153847.727500", "153848.337500", "153848.947500", "153849.557500", "153850.167500", "153850.777500", "153851.387500", "153851.997500", "153852.607500", "153853.217500", "153853.827500", "153854.437500", "153855.047500", "153855.657500", "153856.267500", "153856.877500", "153857.487500", "153858.097500", "153858.707500", "153859.317500", "153859.927500", "153900.537500", "153901.147500", "153901.757500", "153902.367500", "153902.977500", "153903.587500", "153904.197500", "153904.807500", "153905.417500", "153906.027500", "153906.637500", "153907.247500", "153907.857500", "153908.467500", "153909.077500", "153909.687500", "153910.297500", "153910.907500", "153911.517500", "153912.127500", "153912.737500", "153913.347500", "153913.957500", "153914.567500", "153915.177500", "153915.787500", "153916.397500", "153917.007500", "153917.617500", "153918.227500", "153918.837500", "153919.447500", "153920.057500", "153920.667500", "153921.277500", "153921.887500", "153922.497500", "153923.107500", "153923.717500", "153924.327500", "153924.937500", "153925.547500", "153926.157500", "153926.767500", "153927.377500", "153927.987500", "153928.597500", "153929.207500", "153929.817500", "153930.427500", "153931.037500", "153931.647500", "153932.257500", "153932.867500", "153933.477500", "153934.087500", "153934.697500", "153935.307500", "153935.917500", "153936.527500", "153937.137500", "153937.747500", "153938.357500", "153938.967500", "153939.577500", "153940.187500", "153940.797500", "153941.407500", "153942.017500", "153942.627500", "153943.237500", "153943.847500", "153944.457500", "153945.067500", "153945.677500", "153946.287500", "153946.897500", "153947.507500", "153948.117500", "153948.727500", "153949.337500", "153949.947500", "153950.557500", "153951.167500", "153951.777500", "153952.387500", "153952.997500", "153953.607500", "153954.217500", "153954.827500", "153955.437500", "153956.047500", "153956.657500", "153957.267500", "153957.877500", "153958.487500", "153959.097500", "153959.707500", "154000.317500", "154000.927500", "154001.537500", "154002.147500", "154002.757500", "154003.367500", "154003.977500", "154004.587500", "154005.197500", "154005.807500", "154006.417500", "154007.027500", "154007.637500", "154008.247500", "154008.857500", "154009.467500", "154010.077500", "154010.687500", "154011.297500", "154011.907500", "154012.517500", "154013.127500", "154013.737500", "154014.347500", "154014.957500", "154015.567500", "154016.177500", "154016.787500", "154017.397500", "154018.007500", "154018.617500", "154019.227500", "154019.837500", "154020.447500", "154021.057500", "154021.667500", "154022.277500", "154022.887500", "154023.497500", "154024.107500", "154024.717500", "154025.327500", "154025.937500", "154026.547500", "154027.157500", "154027.767500", "154028.377500", "154028.987500", "154029.597500", "154030.207500", "154030.817500", "154031.427500", "154032.037500", "154032.647500", "154033.257500", "154033.867500", "154034.477500", "154035.087500", "154035.697500", "154036.307500", "154036.917500", "154037.527500", "154038.137500", "154038.747500", "154039.357500", "154039.967500", "154040.577500", "154041.187500", "154041.797500", "154042.407500", "154043.017500", "154043.627500", "154044.237500", "154044.847500", "154045.457500", "154046.067500", "154046.677500", "154047.287500", "154047.897500", "154048.507500", "154049.117500", "154049.727500", "154050.337500", "154050.947500", "154051.557500", "154052.167500", "154052.777500", "154053.387500", "154053.997500", "154054.607500", "154055.217500", "154055.827500", "154056.437500", "154057.047500", "154057.657500", "154058.267500", "154058.877500", "154059.487500", "154100.097500", "154100.707500", "154101.317500", "154101.927500", "154102.537500", "154103.147500", "154103.757500", "154104.367500", "154104.977500", "154105.587500", "154106.197500", "154106.807500", "154107.417500", "154108.027500", "154108.637500", "154109.247500", "154109.857500", "154110.467500", "154111.077500", "154111.687500", "154112.297500", "154112.907500", "154113.517500", "154114.127500", "154114.737500", "154115.347500", "154115.957500", "154116.567500", "154117.177500", "154117.787500", "154118.397500", "154119.007500", "154119.617500", "154120.227500", "154120.837500", "154121.447500", "154122.057500", "154122.667500", "154123.277500", "154123.887500", "154124.497500", "154125.107500", "154125.717500", "154126.327500", "154126.937500", "154127.547500", "154128.157500", "154128.767500", "154129.377500", "154129.987500", "154130.597500", "154131.207500", "154131.817500", "154132.427500", "154133.037500", "154133.647500", "154134.257500", "154134.867500", "154135.477500", "154136.087500", "154136.697500", "154137.307500", "154137.917500", "154138.527500", "154139.137500", "154139.747500", "154140.357500", "154140.967500", "154141.577500", "154142.187500", "154142.797500", "154143.407500", "154144.017500", "154144.627500", "154145.237500", "154145.847500", "154146.457500", "154147.067500", "154147.677500", "154148.287500", "154148.897500", "154149.507500", "154150.117500", "154150.727500", "154151.337500", "154151.947500", "154152.557500", "154153.167500", "154153.777500", "154154.387500", "154154.997500", "154155.607500", "154156.217500", "154156.827500", "154157.437500", "154158.047500", "154158.657500", "154159.267500", "154159.877500", "154200.487500", "154201.097500", "154201.707500", "154202.317500", "154202.927500", "154203.537500", "154204.147500", "154204.757500", "154205.367500", "154205.977500", "154206.587500", "154207.197500", "154207.807500", "154208.417500", "154209.027500", "154209.637500", "154210.247500", "154210.857500", "154211.467500", "154212.077500", "154212.687500", "154213.297500", "154213.907500", "154214.517500", "154215.127500", "154215.737500", "154216.347500", "154216.957500", "154217.567500", "154218.177500", "154218.787500", "154219.397500", "154220.007500", "154220.617500", "154221.227500", "154221.837500", "154222.447500", "154223.057500", "154223.667500", "154224.277500", "154224.887500", "154225.497500", "154226.107500", "154226.717500", "154227.327500", "154227.937500", "154228.547500", "154229.157500", "154229.767500", "154230.377500", "154230.987500", "154231.597500", "154232.207500", "154232.817500", "154233.427500", "154234.037500", "154234.647500", "154235.257500", "154235.867500", "154236.477500", "154237.087500", "154237.697500", "154238.307500", "154238.917500", "154239.527500", "154240.137500", "154240.747500", "154241.357500", "154241.967500", "154242.577500", "154243.187500", "154243.797500", "154244.407500", "154245.017500", "154245.627500", "154246.237500", "154246.847500", "154247.457500", "154248.067500", "154248.677500", "154249.287500", "154249.897500", "154250.507500", "154251.117500", "154251.727500", "154252.337500", "154252.947500", "154253.557500", "154254.167500", "154254.777500", "154255.387500", "154255.997500", "154256.607500", "154257.217500", "154257.827500", "154258.437500", "154259.047500", "154259.657500", "154300.267500", "154300.877500", "154301.487500", "154302.097500", "154302.707500", "154303.317500", "154303.927500", "154304.537500", "154305.147500", "154305.757500", "154306.367500", "154306.977500", "154307.587500", "154308.197500", "154308.807500", "154309.417500", "154310.027500", "154310.637500", "154311.247500", "154311.857500", "154312.467500", "154313.077500", "154313.687500", "154314.297500", "154314.907500", "154315.517500", "154316.127500", "154316.737500", "154317.347500", "154317.957500", "154318.567500", "154319.177500", "154319.787500", "154320.397500", "154321.007500", "154321.617500", "154322.227500", "154322.837500", "154323.447500", "154324.057500", "154324.667500", "154325.277500", "154325.887500", "154326.497500", "154327.107500", "154327.717500", "154328.327500", "154328.937500", "154329.547500", "154330.157500", "154330.767500", "154331.377500", "154331.987500", "154332.597500", "154333.207500"], "ContentTime": ["153854.523000", "153854.526000", "153854.528000", "153854.530000", "153854.539000", "153854.542000", "153854.544000", "153854.547000", "153854.549000", "153854.551000", "153854.554000", "153854.556000", "153854.558000", "153854.561000", "153854.563000", "153854.565000", "153854.568000", "153854.570000", "153854.573000", "153854.575000", "153854.577000", "153854.580000", "153854.582000", "153854.585000", "153854.587000", "153854.590000", "153854.592000", "153854.594000", "153854.597000", "153854.599000", "153854.601000", "153854.604000", "153854.606000", "153854.609000", "153854.611000", "153854.613000", "153854.616000", "153854.618000", "153854.621000", "153854.629000", "153854.631000", "153854.638000", "153854.641000", "153854.643000", "153854.645000", "153854.648000", "153854.650000", "153854.652000", "153854.655000", "153854.657000", "153854.659000", "153914.518000", "153914.521000", "153914.523000", "153914.530000", "153914.532000", "153914.535000", "153914.537000", "153914.539000", "153914.542000", "153914.544000", "153914.546000", "153914.549000", "153914.558000", "153914.561000", "153914.563000", "153914.566000", "153914.568000", "153914.570000", "153914.573000", "153914.575000", "153914.577000", "153914.580000", "153914.582000", "153914.585000", "153914.587000", "153914.589000", "153914.592000", "153914.594000", "153914.596000", "153914.599000", "153914.601000", "153914.604000", "153914.606000", "153934.518000", "153934.528000", "153934.530000", "153934.533000", "153934.535000", "153934.538000", "153934.540000", "153934.542000", "153934.545000", "153934.547000", "153934.550000", "153934.552000", "153934.554000", "153934.557000", "153934.559000", "153934.561000", "153934.564000", "153934.566000", "153934.569000", "153934.571000", "153934.573000", "153934.576000", "153934.578000", "153934.581000", "153934.583000", "153934.585000", "153934.588000", "153934.590000", "153934.593000", "153934.595000", "153934.598000", "153934.600000", "153954.519000", "153954.526000", "153954.528000", "153954.531000", "153954.533000", "153954.535000", "153954.538000", "153954.540000", "153954.543000", "153954.545000", "153954.547000", "153954.550000", "153954.552000", "153954.554000", "153954.557000", "153954.559000", "153954.561000", "153954.564000", "153954.566000", "153954.568000", "153954.571000", "153954.573000", "153954.576000", "153954.578000", "153954.580000", "153954.583000", "153954.586000", "153954.589000", "153954.591000", "153954.594000", "153954.596000", "153954.598000", "153954.601000", "154014.519000", "154014.522000", "154014.524000", "154014.526000", "154014.529000", "154014.531000", "154014.534000", "154014.536000", "154014.538000", "154014.541000", "154014.543000", "154014.545000", "154014.548000", "154014.550000", "154014.553000", "154014.555000", "154014.558000", "154014.560000", "154014.562000", "154014.565000", "154014.567000", "154014.570000", "154014.572000", "154014.574000", "154014.577000", "154014.579000", "154014.582000", "154014.584000", "154014.586000", "154014.589000", "154014.591000", "154014.594000", "154014.596000", "154034.520000", "154034.522000", "154034.524000", "154034.527000", "154034.529000", "154034.532000", "154034.534000", "154034.536000", "154034.539000", "154034.541000", "154034.543000", "154034.546000", "154034.548000", "154034.551000", "154034.553000", "154034.555000", "154034.558000", "154034.560000", "154034.562000", "154034.565000", "154034.567000", "154034.569000", "154034.572000", "154034.574000", "154034.577000", "154034.579000", "154034.581000", "154034.584000", "154034.586000", "154034.589000", "154034.591000", "154034.593000", "154034.596000", "154054.518000", "154054.521000", "154054.523000", "154054.526000", "154054.528000", "154054.531000", "154054.533000", "154054.535000", "154054.538000", "154054.540000", "154054.543000", "154054.545000", "154054.557000", "154054.559000", "154054.562000", "154054.564000", "154054.567000", "154054.569000", "154054.571000", "154054.574000", "154054.576000", "154054.578000", "154054.581000", "154054.583000", "154054.586000", "154054.588000", "154054.590000", "154054.593000", "154054.595000", "154054.598000", "154054.600000", "154054.602000", "154114.518000", "154114.521000", "154114.523000", "154114.526000", "154114.528000", "154114.530000", "154114.533000", "154114.535000", "154114.538000", "154114.540000", "154114.542000", "154114.545000", "154114.547000", "154114.550000", "154114.552000", "154114.554000", "154114.557000", "154114.559000", "154114.562000", "154114.564000", "154114.566000", "154114.569000", "154114.571000", "154114.573000", "154114.576000", "154114.578000", "154114.580000", "154114.583000", "154114.585000", "154114.587000", "154114.590000", "154114.592000", "154114.595000", "154134.518000", "154134.521000", "154134.523000", "154134.526000", "154134.528000", "154134.531000", "154134.533000", "154134.536000", "154134.538000", "154134.540000", "154134.543000", "154134.545000", "154134.547000", "154134.550000", "154134.552000", "154134.555000", "154134.557000", "154134.559000", "154134.562000", "154134.564000", "154134.567000", "154134.569000", "154134.571000", "154134.574000", "154134.576000", "154134.579000", "154134.581000", "154134.583000", "154134.586000", "154134.588000", "154134.591000", "154134.593000", "154134.595000", "154154.518000", "154154.521000", "154154.523000", "154154.526000", "154154.528000", "154154.531000", "154154.533000", "154154.535000", "154154.538000", "154154.540000", "154154.543000", "154154.546000", "154154.549000", "154154.551000", "154154.553000", "154154.556000", "154154.558000", "154154.561000", "154154.563000", "154154.565000", "154154.568000", "154154.570000", "154154.573000", "154154.575000", "154154.577000", "154154.580000", "154154.582000", "154154.585000", "154154.587000", "154154.590000", "154154.592000", "154154.595000", "154154.597000", "154214.519000", "154214.522000", "154214.524000", "154214.526000", "154214.529000", "154214.531000", "154214.534000", "154214.536000", "154214.538000", "154214.541000", "154214.543000", "154214.546000", "154214.548000", "154214.550000", "154214.553000", "154214.555000", "154214.558000", "154214.560000", "154214.562000", "154214.565000", "154214.567000", "154214.570000", "154214.572000", "154214.574000", "154214.577000", "154214.579000", "154214.581000", "154214.584000", "154214.586000", "154214.589000", "154214.591000", "154214.593000", "154214.596000", "154234.519000", "154234.522000", "154234.524000", "154234.527000", "154234.529000", "154234.532000", "154234.534000", "154234.536000", "154234.539000", "154234.541000", "154234.544000", "154234.546000", "154234.549000", "154234.551000", "154234.553000", "154234.556000", "154234.559000", "154234.561000", "154234.564000", "154234.566000", "154234.569000", "154234.571000", "154234.574000", "154234.576000", "154234.578000", "154234.581000", "154234.583000", "154234.586000", "154234.588000", "154234.591000", "154234.593000", "154234.595000", "154254.519000", "154254.522000", "154254.524000", "154254.526000", "154254.529000", "154254.531000", "154254.534000", "154254.537000", "154254.539000", "154254.542000", "154254.544000", "154254.546000", "154254.549000", "154254.551000", "154254.554000", "154254.556000", "154254.558000", "154254.561000", "154254.563000", "154254.565000", "154254.568000", "154254.570000", "154254.573000", "154254.575000", "154254.577000", "154254.580000", "154254.582000", "154254.585000", "154254.587000", "154254.590000", "154254.592000", "154254.595000", "154254.597000", "154314.518000", "154314.521000", "154314.523000", "154314.526000", "154314.528000", "154314.531000", "154314.533000", "154314.535000", "154314.538000", "154314.540000", "154314.542000", "154314.545000", "154314.547000", "154314.550000", "154314.552000", "154314.555000", "154314.557000", "154314.559000", "154314.562000", "154314.564000", "154314.566000", "154314.569000", "154314.571000", "154314.574000", "154314.576000", "154314.578000", "154314.581000", "154314.583000", "154314.585000", "154314.588000", "154314.590000", "154314.593000", "154314.595000", "154334.302000", "154334.305000", "154334.307000", "154334.310000", "154334.312000", "154334.315000", "154334.317000", "154334.320000", "154334.322000", "154334.325000", "154334.327000", "154334.329000", "154334.332000", "154334.334000", "154334.336000", "154334.346000", "154334.349000", "154334.351000", "154334.354000", "154334.356000", "154334.359000", "154334.361000", "154334.363000", "154334.366000", "154334.368000", "154334.370000", "154334.373000", "154334.375000", "154334.378000", "154334.380000", "154334.382000", "154334.385000", "154334.387000"], "InstanceCreationTime": ["153854.523000", "153854.526000", "153854.528000", "153854.530000", "153854.539000", "153854.542000", "153854.544000", "153854.547000", "153854.549000", "153854.551000", "153854.554000", "153854.556000", "153854.558000", "153854.561000", "153854.563000", "153854.565000", "153854.568000", "153854.570000", "153854.573000", "153854.575000", "153854.577000", "153854.580000", "153854.582000", "153854.585000", "153854.587000", "153854.590000", "153854.592000", "153854.594000", "153854.597000", "153854.599000", "153854.601000", "153854.604000", "153854.606000", "153854.609000", "153854.611000", "153854.613000", "153854.616000", "153854.618000", "153854.621000", "153854.629000", "153854.631000", "153854.638000", "153854.641000", "153854.643000", "153854.645000", "153854.648000", "153854.650000", "153854.652000", "153854.655000", "153854.657000", "153854.659000", "153914.518000", "153914.521000", "153914.523000", "153914.530000", "153914.532000", "153914.535000", "153914.537000", "153914.539000", "153914.542000", "153914.544000", "153914.546000", "153914.549000", "153914.558000", "153914.561000", "153914.563000", "153914.566000", "153914.568000", "153914.570000", "153914.573000", "153914.575000", "153914.577000", "153914.580000", "153914.582000", "153914.585000", "153914.587000", "153914.589000", "153914.592000", "153914.594000", "153914.596000", "153914.599000", "153914.601000", "153914.604000", "153914.606000", "153934.518000", "153934.528000", "153934.530000", "153934.533000", "153934.535000", "153934.538000", "153934.540000", "153934.542000", "153934.545000", "153934.547000", "153934.550000", "153934.552000", "153934.554000", "153934.557000", "153934.559000", "153934.561000", "153934.564000", "153934.566000", "153934.569000", "153934.571000", "153934.573000", "153934.576000", "153934.578000", "153934.581000", "153934.583000", "153934.585000", "153934.588000", "153934.590000", "153934.593000", "153934.595000", "153934.598000", "153934.600000", "153954.519000", "153954.526000", "153954.528000", "153954.531000", "153954.533000", "153954.535000", "153954.538000", "153954.540000", "153954.543000", "153954.545000", "153954.547000", "153954.550000", "153954.552000", "153954.554000", "153954.557000", "153954.559000", "153954.561000", "153954.564000", "153954.566000", "153954.568000", "153954.571000", "153954.573000", "153954.576000", "153954.578000", "153954.580000", "153954.583000", "153954.586000", "153954.589000", "153954.591000", "153954.594000", "153954.596000", "153954.598000", "153954.601000", "154014.519000", "154014.522000", "154014.524000", "154014.526000", "154014.529000", "154014.531000", "154014.534000", "154014.536000", "154014.538000", "154014.541000", "154014.543000", "154014.545000", "154014.548000", "154014.550000", "154014.553000", "154014.555000", "154014.558000", "154014.560000", "154014.562000", "154014.565000", "154014.567000", "154014.570000", "154014.572000", "154014.574000", "154014.577000", "154014.579000", "154014.582000", "154014.584000", "154014.586000", "154014.589000", "154014.591000", "154014.594000", "154014.596000", "154034.520000", "154034.522000", "154034.524000", "154034.527000", "154034.529000", "154034.532000", "154034.534000", "154034.536000", "154034.539000", "154034.541000", "154034.543000", "154034.546000", "154034.548000", "154034.551000", "154034.553000", "154034.555000", "154034.558000", "154034.560000", "154034.562000", "154034.565000", "154034.567000", "154034.569000", "154034.572000", "154034.574000", "154034.577000", "154034.579000", "154034.581000", "154034.584000", "154034.586000", "154034.589000", "154034.591000", "154034.593000", "154034.596000", "154054.518000", "154054.521000", "154054.523000", "154054.526000", "154054.528000", "154054.531000", "154054.533000", "154054.535000", "154054.538000", "154054.540000", "154054.543000", "154054.545000", "154054.557000", "154054.559000", "154054.562000", "154054.564000", "154054.567000", "154054.569000", "154054.571000", "154054.574000", "154054.576000", "154054.578000", "154054.581000", "154054.583000", "154054.586000", "154054.588000", "154054.590000", "154054.593000", "154054.595000", "154054.598000", "154054.600000", "154054.602000", "154114.518000", "154114.521000", "154114.523000", "154114.526000", "154114.528000", "154114.530000", "154114.533000", "154114.535000", "154114.538000", "154114.540000", "154114.542000", "154114.545000", "154114.547000", "154114.550000", "154114.552000", "154114.554000", "154114.557000", "154114.559000", "154114.562000", "154114.564000", "154114.566000", "154114.569000", "154114.571000", "154114.573000", "154114.576000", "154114.578000", "154114.580000", "154114.583000", "154114.585000", "154114.587000", "154114.590000", "154114.592000", "154114.595000", "154134.518000", "154134.521000", "154134.523000", "154134.526000", "154134.528000", "154134.531000", "154134.533000", "154134.536000", "154134.538000", "154134.540000", "154134.543000", "154134.545000", "154134.547000", "154134.550000", "154134.552000", "154134.555000", "154134.557000", "154134.559000", "154134.562000", "154134.564000", "154134.567000", "154134.569000", "154134.571000", "154134.574000", "154134.576000", "154134.579000", "154134.581000", "154134.583000", "154134.586000", "154134.588000", "154134.591000", "154134.593000", "154134.595000", "154154.518000", "154154.521000", "154154.523000", "154154.526000", "154154.528000", "154154.531000", "154154.533000", "15415