{"AcquisitionMatrixPE": 64, "AcquisitionNumber": 1, "AcquisitionTime": "15:27:33.767500", "BandwidthPerPixelPhaseEncode": 28.935, "BaseResolution": 64, "BodyPartExamined": "BRAIN", "CoilCombinationMethod": "Sum of Squares", "ConsistencyInfo": "N4_VE11E_LATEST_20181129", "ConversionSoftware": "dcm2niix", "ConversionSoftwareVersion": "v1.0.20230411", "DerivedVendorReportedEchoSpacing": 0.000540003, "DeviceSerialNumber": "166182", "DwellTime": 3.4e-06, "EchoTime": 0.032, "EchoTrainLength": 64, "EffectiveEchoSpacing": 0.000540003, "FlipAngle": 40, "HeudiconvVersion": "0.13.1", "ImageOrientationPatientDICOM": [0.997887, -0.00931802, -0.0642987, -0.000870772, 0.987655, -0.156643], "ImageOrientationText": "Tra>Cor(-9.0)>Sag(-3.7)", "ImageType": ["ORIGINAL", "PRIMARY", "M", "ND", "NORM", "MOSAIC"], "ImagingFrequency": 123.256415, "InPlanePhaseEncodingDirectionDICOM": "COL", "InstitutionAddress": "PEARSE STREET .,City,District,IE,D2", "InstitutionName": "TCIN", "InstitutionalDepartmentName": "MRI", "MRAcquisitionType": "2D", "MagneticFieldStrength": 3, "Manufacturer": "Siemens", "ManufacturersModelName": "Prisma", "Modality": "MR", "MultibandAccelerationFactor": 4, "NonlinearGradientCorrection": false, "PartialFourier": 1, "PatientPosition": "HFS", "PercentPhaseFOV": 100, "PercentSampling": 100, "PhaseEncodingDirection": "j-", "PhaseEncodingSteps": 64, "PhaseResolution": 1, "PixelBandwidth": 2300, "ProcedureStepDescription": "Rhodri^Head BOLD", "ProtocolName": "cmrr_mbep2d_Pictures_AP_RDS", "PulseSequenceDetails": "%SiemensSeq%\\ep2d_bold", "ReceiveCoilActiveElements": "HC2,4,6,7", "ReceiveCoilName": "HeadNeck_64", "ReconMatrixPE": 64, "RefLinesPE": 12, "RepetitionTime": 0.61, "SAR": 0.161316, "ScanOptions": "FS", "ScanningSequence": "EP", "SequenceName": "*epfid2d1_64", "SequenceVariant": "SK", "SeriesDescription": "cmrr_mbep2d_Pictures_AP_RDS", "SeriesNumber": 16, "ShimSetting": [-3638, -7472, 3990, 714, 0, 633, 319, 24], "SliceThickness": 3, "SliceTiming": [0.2625, 0, 0.3275, 0.065, 0.3925, 0.13, 0.4575, 0.195, 0.5225, 0.2625, 0, 0.3275, 0.065, 0.3925, 0.13, 0.4575, 0.195, 0.5225, 0.2625, 0, 0.3275, 0.065, 0.3925, 0.13, 0.4575, 0.195, 0.5225, 0.2625, 0, 0.3275, 0.065, 0.3925, 0.13, 0.4575, 0.195, 0.5225], "SoftwareVersions": "syngo MR E11", "SpacingBetweenSlices": 3.3, "StationName": "AWP166182", "TaskName": "pictures", "TotalReadoutTime": 0.0340202, "TxRefAmp": 228.92, "dcmmeta_affine": [[-2.993661642074585, -0.0026123174466192722, -0.21438294649124146, 99.80549621582031], [0.027954047545790672, 2.9629650115966797, -0.5160132646560669, -91.2693099975586], [-0.19289609789848328, 0.4699278771877289, 3.2523484230041504, -79.27943420410156], [0.0, 0.0, 0.0, 1.0]], "dcmmeta_reorient_transform": [[0.0, -1.0, 0.0, 63.0], [1.0, 0.0, 0.0, 0.0], [0.0, 0.0, 1.0, 0.0], [0.0, 0.0, 0.0, 1.0]], "dcmmeta_shape": [64, 64, 36, 510], "dcmmeta_slice_dim": 2, "dcmmeta_version": 0.6, "global": {"const": {"AcquisitionMatrix": [64, 0, 0, 64], "AngioFlag": "N", "BitsAllocated": 16, "BitsStored": 12, "BodyPartExamined": "BRAIN", "Columns": 384, "EchoNumbers": 1, "EchoTime": 32.0, "EchoTrainLength": 64, "FlipAngle": 40.0, "HighBit": 11, "ImageOrientationPatient": [0.99788719402124, -0.0093180156256, -0.0642986982233, -0.000870772479, 0.98765496439908, -0.1566426284673], "ImagePositionPatient": [-578.20880360737, -564.99921016474, 56.377858165465], "ImageType": ["ORIGINAL", "PRIMARY", "M", "ND", "NORM", "MOSAIC"], "ImagedNucleus": "1H", "ImagingFrequency": 123.256415, "InPlanePhaseEncodingDirection": "COL", "MRAcquisitionType": "2D", "MagneticFieldStrength": 3.0, "Manufacturer": "SIEMENS", "ManufacturerModelName": "Prisma", "Modality": "MR", "NumberOfAverages": 1.0, "NumberOfPhaseEncodingSteps": 64, "PercentPhaseFieldOfView": 100.0, "PercentSampling": 100.0, "PerformedProcedureStepStartTime": "142330.121000", "PhotometricInterpretation": "MONOCHROME2", "PixelBandwidth": 2300.0, "PixelRepresentation": 0, "PixelSpacing": [3.0, 3.0], "ProtocolName": "cmrr_mbep2d_Pictures_AP_RDS", "RepetitionTime": 610.0, "Rows": 384, "SAR": 0.161316064031, "SamplesPerPixel": 1, "ScanOptions": "FS", "ScanningSequence": "EP", "SequenceName": "*epfid2d1_64", "SequenceVariant": "SK", "SeriesDescription": "cmrr_mbep2d_Pictures_AP_RDS", "SeriesNumber": 16, "SeriesTime": "152756.343000", "SliceLocation": -70.346898167701, "SliceThickness": 3.0, "SmallestImagePixelValue": 0, "SoftwareVersions": "syngo MR E11", "SpacingBetweenSlices": 3.3000000169032, "SpecificCharacterSet": "ISO_IR 100", "StudyID": "1", "StudyTime": "142330.044000", "TransmitCoilName": "Body", "VariableFlipAngleFlag": "N", "WindowCenterWidthExplanation": "Algo1"}, "slices": {}}, "time": {"samples": {"AcquisitionNumber": [1, 2, 3, 4, 5, 6, 7, 8, 9, 10, 11, 12, 13, 14, 15, 16, 17, 18, 19, 20, 21, 22, 23, 24, 25, 26, 27, 28, 29, 30, 31, 32, 33, 34, 35, 36, 37, 38, 39, 40, 41, 42, 43, 44, 45, 46, 47, 48, 49, 50, 51, 52, 53, 54, 55, 56, 57, 58, 59, 60, 61, 62, 63, 64, 65, 66, 67, 68, 69, 70, 71, 72, 73, 74, 75, 76, 77, 78, 79, 80, 81, 82, 83, 84, 85, 86, 87, 88, 89, 90, 91, 92, 93, 94, 95, 96, 97, 98, 99, 100, 101, 102, 103, 104, 105, 106, 107, 108, 109, 110, 111, 112, 113, 114, 115, 116, 117, 118, 119, 120, 121, 122, 123, 124, 125, 126, 127, 128, 129, 130, 131, 132, 133, 134, 135, 136, 137, 138, 139, 140, 141, 142, 143, 144, 145, 146, 147, 148, 149, 150, 151, 152, 153, 154, 155, 156, 157, 158, 159, 160, 161, 162, 163, 164, 165, 166, 167, 168, 169, 170, 171, 172, 173, 174, 175, 176, 177, 178, 179, 180, 181, 182, 183, 184, 185, 186, 187, 188, 189, 190, 191, 192, 193, 194, 195, 196, 197, 198, 199, 200, 201, 202, 203, 204, 205, 206, 207, 208, 209, 210, 211, 212, 213, 214, 215, 216, 217, 218, 219, 220, 221, 222, 223, 224, 225, 226, 227, 228, 229, 230, 231, 232, 233, 234, 235, 236, 237, 238, 239, 240, 241, 242, 243, 244, 245, 246, 247, 248, 249, 250, 251, 252, 253, 254, 255, 256, 257, 258, 259, 260, 261, 262, 263, 264, 265, 266, 267, 268, 269, 270, 271, 272, 273, 274, 275, 276, 277, 278, 279, 280, 281, 282, 283, 284, 285, 286, 287, 288, 289, 290, 291, 292, 293, 294, 295, 296, 297, 298, 299, 300, 301, 302, 303, 304, 305, 306, 307, 308, 309, 310, 311, 312, 313, 314, 315, 316, 317, 318, 319, 320, 321, 322, 323, 324, 325, 326, 327, 328, 329, 330, 331, 332, 333, 334, 335, 336, 337, 338, 339, 340, 341, 342, 343, 344, 345, 346, 347, 348, 349, 350, 351, 352, 353, 354, 355, 356, 357, 358, 359, 360, 361, 362, 363, 364, 365, 366, 367, 368, 369, 370, 371, 372, 373, 374, 375, 376, 377, 378, 379, 380, 381, 382, 383, 384, 385, 386, 387, 388, 389, 390, 391, 392, 393, 394, 395, 396, 397, 398, 399, 400, 401, 402, 403, 404, 405, 406, 407, 408, 409, 410, 411, 412, 413, 414, 415, 416, 417, 418, 419, 420, 421, 422, 423, 424, 425, 426, 427, 428, 429, 430, 431, 432, 433, 434, 435, 436, 437, 438, 439, 440, 441, 442, 443, 444, 445, 446, 447, 448, 449, 450, 451, 452, 453, 454, 455, 456, 457, 458, 459, 460, 461, 462, 463, 464, 465, 466, 467, 468, 469, 470, 471, 472, 473, 474, 475, 476, 477, 478, 479, 480, 481, 482, 483, 484, 485, 486, 487, 488, 489, 490, 491, 492, 493, 494, 495, 496, 497, 498, 499, 500, 501, 502, 503, 504, 505, 506, 507, 508, 509, 510], "AcquisitionTime": ["152733.767500", "152734.377500", "152734.987500", "152735.597500", "152736.207500", "152736.817500", "152737.427500", "152738.037500", "152738.647500", "152739.257500", "152739.867500", "152740.477500", "152741.087500", "152741.697500", "152742.307500", "152742.917500", "152743.527500", "152744.137500", "152744.747500", "152745.357500", "152745.967500", "152746.577500", "152747.187500", "152747.797500", "152748.407500", "152749.017500", "152749.627500", "152750.237500", "152750.847500", "152751.457500", "152752.067500", "152752.677500", "152753.287500", "152753.897500", "152754.507500", "152755.117500", "152755.727500", "152756.337500", "152756.947500", "152757.557500", "152758.167500", "152758.777500", "152759.387500", "152759.997500", "152800.607500", "152801.217500", "152801.827500", "152802.437500", "152803.047500", "152803.657500", "152804.267500", "152804.877500", "152805.487500", "152806.097500", "152806.707500", "152807.317500", "152807.927500", "152808.537500", "152809.147500", "152809.757500", "152810.367500", "152810.977500", "152811.587500", "152812.197500", "152812.807500", "152813.417500", "152814.027500", "152814.637500", "152815.247500", "152815.857500", "152816.467500", "152817.077500", "152817.687500", "152818.297500", "152818.907500", "152819.517500", "152820.127500", "152820.737500", "152821.347500", "152821.957500", "152822.567500", "152823.177500", "152823.787500", "152824.397500", "152825.007500", "152825.617500", "152826.227500", "152826.837500", "152827.447500", "152828.057500", "152828.667500", "152829.277500", "152829.887500", "152830.497500", "152831.107500", "152831.717500", "152832.327500", "152832.937500", "152833.547500", "152834.157500", "152834.767500", "152835.377500", "152835.987500", "152836.597500", "152837.207500", "152837.817500", "152838.427500", "152839.037500", "152839.647500", "152840.257500", "152840.867500", "152841.477500", "152842.087500", "152842.697500", "152843.307500", "152843.917500", "152844.527500", "152845.137500", "152845.747500", "152846.357500", "152846.967500", "152847.577500", "152848.187500", "152848.797500", "152849.407500", "152850.017500", "152850.627500", "152851.237500", "152851.847500", "152852.457500", "152853.067500", "152853.677500", "152854.287500", "152854.897500", "152855.507500", "152856.117500", "152856.727500", "152857.337500", "152857.947500", "152858.557500", "152859.167500", "152859.777500", "152900.387500", "152900.997500", "152901.607500", "152902.217500", "152902.827500", "152903.437500", "152904.047500", "152904.657500", "152905.267500", "152905.877500", "152906.487500", "152907.097500", "152907.707500", "152908.317500", "152908.927500", "152909.537500", "152910.147500", "152910.757500", "152911.367500", "152911.977500", "152912.587500", "152913.197500", "152913.807500", "152914.417500", "152915.027500", "152915.637500", "152916.247500", "152916.857500", "152917.467500", "152918.077500", "152918.687500", "152919.297500", "152919.907500", "152920.517500", "152921.127500", "152921.737500", "152922.347500", "152922.957500", "152923.567500", "152924.177500", "152924.787500", "152925.397500", "152926.007500", "152926.617500", "152927.227500", "152927.837500", "152928.447500", "152929.057500", "152929.667500", "152930.277500", "152930.887500", "152931.497500", "152932.107500", "152932.717500", "152933.327500", "152933.937500", "152934.547500", "152935.157500", "152935.767500", "152936.377500", "152936.987500", "152937.597500", "152938.207500", "152938.817500", "152939.427500", "152940.037500", "152940.647500", "152941.257500", "152941.867500", "152942.477500", "152943.087500", "152943.697500", "152944.307500", "152944.917500", "152945.527500", "152946.137500", "152946.747500", "152947.357500", "152947.967500", "152948.577500", "152949.187500", "152949.797500", "152950.407500", "152951.017500", "152951.627500", "152952.237500", "152952.847500", "152953.457500", "152954.067500", "152954.677500", "152955.287500", "152955.897500", "152956.507500", "152957.117500", "152957.727500", "152958.337500", "152958.947500", "152959.557500", "153000.167500", "153000.777500", "153001.387500", "153001.997500", "153002.607500", "153003.217500", "153003.827500", "153004.437500", "153005.047500", "153005.657500", "153006.267500", "153006.877500", "153007.487500", "153008.097500", "153008.707500", "153009.317500", "153009.927500", "153010.537500", "153011.147500", "153011.757500", "153012.367500", "153012.977500", "153013.587500", "153014.197500", "153014.807500", "153015.417500", "153016.027500", "153016.637500", "153017.247500", "153017.857500", "153018.467500", "153019.077500", "153019.687500", "153020.297500", "153020.907500", "153021.517500", "153022.127500", "153022.737500", "153023.347500", "153023.957500", "153024.567500", "153025.177500", "153025.787500", "153026.397500", "153027.007500", "153027.617500", "153028.227500", "153028.837500", "153029.447500", "153030.057500", "153030.667500", "153031.277500", "153031.887500", "153032.497500", "153033.107500", "153033.717500", "153034.327500", "153034.937500", "153035.547500", "153036.157500", "153036.767500", "153037.377500", "153037.987500", "153038.597500", "153039.207500", "153039.817500", "153040.427500", "153041.037500", "153041.647500", "153042.257500", "153042.867500", "153043.477500", "153044.087500", "153044.697500", "153045.307500", "153045.917500", "153046.527500", "153047.137500", "153047.747500", "153048.357500", "153048.967500", "153049.577500", "153050.187500", "153050.797500", "153051.407500", "153052.017500", "153052.627500", "153053.237500", "153053.847500", "153054.457500", "153055.067500", "153055.677500", "153056.287500", "153056.897500", "153057.507500", "153058.117500", "153058.727500", "153059.337500", "153059.947500", "153100.557500", "153101.167500", "153101.777500", "153102.387500", "153102.997500", "153103.607500", "153104.217500", "153104.827500", "153105.437500", "153106.047500", "153106.657500", "153107.267500", "153107.877500", "153108.487500", "153109.097500", "153109.707500", "153110.317500", "153110.927500", "153111.537500", "153112.147500", "153112.757500", "153113.367500", "153113.977500", "153114.587500", "153115.197500", "153115.807500", "153116.417500", "153117.027500", "153117.637500", "153118.247500", "153118.857500", "153119.467500", "153120.077500", "153120.687500", "153121.297500", "153121.907500", "153122.517500", "153123.127500", "153123.737500", "153124.347500", "153124.957500", "153125.567500", "153126.177500", "153126.787500", "153127.397500", "153128.007500", "153128.617500", "153129.227500", "153129.837500", "153130.447500", "153131.057500", "153131.667500", "153132.277500", "153132.887500", "153133.497500", "153134.107500", "153134.717500", "153135.327500", "153135.937500", "153136.547500", "153137.157500", "153137.767500", "153138.377500", "153138.987500", "153139.597500", "153140.207500", "153140.817500", "153141.427500", "153142.037500", "153142.647500", "153143.257500", "153143.867500", "153144.477500", "153145.087500", "153145.697500", "153146.307500", "153146.917500", "153147.527500", "153148.137500", "153148.747500", "153149.357500", "153149.967500", "153150.577500", "153151.187500", "153151.797500", "153152.407500", "153153.017500", "153153.627500", "153154.237500", "153154.847500", "153155.457500", "153156.067500", "153156.677500", "153157.287500", "153157.897500", "153158.507500", "153159.117500", "153159.727500", "153200.337500", "153200.947500", "153201.557500", "153202.167500", "153202.777500", "153203.387500", "153203.997500", "153204.607500", "153205.217500", "153205.827500", "153206.437500", "153207.047500", "153207.657500", "153208.267500", "153208.877500", "153209.487500", "153210.097500", "153210.707500", "153211.317500", "153211.927500", "153212.537500", "153213.147500", "153213.757500", "153214.367500", "153214.977500", "153215.587500", "153216.197500", "153216.807500", "153217.417500", "153218.027500", "153218.637500", "153219.247500", "153219.857500", "153220.467500", "153221.077500", "153221.687500", "153222.297500", "153222.907500", "153223.517500", "153224.127500", "153224.737500", "153225.347500", "153225.957500", "153226.567500", "153227.177500", "153227.787500", "153228.397500", "153229.007500", "153229.617500", "153230.227500", "153230.837500", "153231.447500", "153232.057500", "153232.667500", "153233.277500", "153233.887500", "153234.497500", "153235.107500", "153235.717500", "153236.327500", "153236.937500", "153237.547500", "153238.157500", "153238.767500", "153239.377500", "153239.987500", "153240.597500", "153241.207500", "153241.817500", "153242.427500", "153243.037500", "153243.647500", "153244.257500"], "ContentTime": ["152756.347000", "152756.350000", "152756.352000", "152756.355000", "152756.357000", "152756.359000", "152756.362000", "152756.364000", "152756.366000", "152756.369000", "152756.371000", "152756.374000", "152756.384000", "152756.387000", "152756.389000", "152756.392000", "152756.394000", "152756.397000", "152756.399000", "152756.402000", "152756.404000", "152756.406000", "152756.409000", "152756.412000", "152756.414000", "152756.417000", "152756.419000", "152756.421000", "152756.424000", "152756.433000", "152756.435000", "152756.437000", "152756.440000", "152756.442000", "152756.444000", "152816.342000", "152816.345000", "152816.347000", "152816.350000", "152816.352000", "152816.354000", "152816.357000", "152816.359000", "152816.361000", "152816.378000", "152816.380000", "152816.383000", "152816.385000", "152816.388000", "152816.390000", "152816.392000", "152816.395000", "152816.397000", "152816.399000", "152816.402000", "152816.404000", "152816.407000", "152816.409000", "152816.411000", "152816.414000", "152816.416000", "152816.418000", "152816.421000", "152816.423000", "152816.425000", "152816.428000", "152816.430000", "152816.432000", "152836.342000", "152836.345000", "152836.347000", "152836.350000", "152836.352000", "152836.354000", "152836.357000", "152836.359000", "152836.362000", "152836.364000", "152836.366000", "152836.369000", "152836.371000", "152836.373000", "152836.376000", "152836.378000", "152836.381000", "152836.383000", "152836.389000", "152836.391000", "152836.394000", "152836.396000", "152836.398000", "152836.401000", "152836.403000", "152836.405000", "152836.408000", "152836.410000", "152836.412000", "152836.415000", "152836.417000", "152836.419000", "152836.422000", "152856.342000", "152856.345000", "152856.347000", "152856.349000", "152856.352000", "152856.354000", "152856.357000", "152856.359000", "152856.361000", "152856.364000", "152856.366000", "152856.368000", "152856.371000", "152856.373000", "152856.376000", "152856.378000", "152856.380000", "152856.383000", "152856.385000", "152856.387000", "152856.390000", "152856.392000", "152856.394000", "152856.397000", "152856.399000", "152856.401000", "152856.404000", "152856.410000", "152856.412000", "152856.415000", "152856.417000", "152856.420000", "152856.422000", "152916.342000", "152916.345000", "152916.347000", "152916.350000", "152916.352000", "152916.354000", "152916.357000", "152916.359000", "152916.361000", "152916.364000", "152916.366000", "152916.368000", "152916.371000", "152916.373000", "152916.376000", "152916.378000", "152916.381000", "152916.383000", "152916.385000", "152916.388000", "152916.390000", "152916.393000", "152916.395000", "152916.397000", "152916.400000", "152916.402000", "152916.405000", "152916.407000", "152916.410000", "152916.412000", "152916.414000", "152916.417000", "152936.342000", "152936.345000", "152936.347000", "152936.349000", "152936.352000", "152936.354000", "152936.357000", "152936.359000", "152936.361000", "152936.364000", "152936.366000", "152936.369000", "152936.371000", "152936.378000", "152936.380000", "152936.382000", "152936.385000", "152936.387000", "152936.390000", "152936.392000", "152936.394000", "152936.397000", "152936.399000", "152936.402000", "152936.404000", "152936.406000", "152936.409000", "152936.411000", "152936.414000", "152936.416000", "152936.418000", "152936.421000", "152936.423000", "152956.342000", "152956.345000", "152956.347000", "152956.350000", "152956.352000", "152956.355000", "152956.357000", "152956.359000", "152956.362000", "152956.375000", "152956.377000", "152956.380000", "152956.382000", "152956.385000", "152956.387000", "152956.389000", "152956.392000", "152956.394000", "152956.397000", "152956.399000", "152956.401000", "152956.404000", "152956.406000", "152956.408000", "152956.411000", "152956.413000", "152956.416000", "152956.418000", "152956.420000", "152956.423000", "152956.425000", "152956.427000", "152956.430000", "153016.342000", "153016.345000", "153016.347000", "153016.349000", "153016.352000", "153016.354000", "153016.357000", "153016.359000", "153016.361000", "153016.364000", "153016.366000", "153016.368000", "153016.371000", "153016.373000", "153016.384000", "153016.386000", "153016.389000", "153016.391000", "153016.394000", "153016.396000", "153016.398000", "153016.401000", "153016.403000", "153016.406000", "153016.408000", "153016.410000", "153016.413000", "153016.415000", "153016.417000", "153016.420000", "153016.422000", "153016.425000", "153016.427000", "153036.342000", "153036.345000", "153036.347000", "153036.350000", "153036.352000", "153036.354000", "153036.357000", "153036.359000", "153036.361000", "153036.364000", "153036.366000", "153036.368000", "153036.371000", "153036.373000", "153036.376000", "153036.378000", "153036.381000", "153036.384000", "153036.387000", "153036.389000", "153036.392000", "153036.394000", "153036.397000", "153036.399000", "153036.401000", "153036.404000", "153036.406000", "153036.409000", "153036.411000", "153036.413000", "153036.416000", "153036.418000", "153056.342000", "153056.345000", "153056.347000", "153056.350000", "153056.352000", "153056.354000", "153056.357000", "153056.359000", "153056.362000", "153056.365000", "153056.367000", "153056.370000", "153056.372000", "153056.375000", "153056.377000", "153056.379000", "153056.382000", "153056.384000", "153056.387000", "153056.389000", "153056.391000", "153056.394000", "153056.396000", "153056.399000", "153056.401000", "153056.403000", "153056.406000", "153056.408000", "153056.410000", "153056.413000", "153056.415000", "153056.418000", "153056.420000", "153116.342000", "153116.345000", "153116.347000", "153116.350000", "153116.352000", "153116.354000", "153116.357000", "153116.359000", "153116.362000", "153116.364000", "153116.366000", "153116.369000", "153116.371000", "153116.373000", "153116.376000", "153116.378000", "153116.381000", "153116.383000", "153116.385000", "153116.388000", "153116.390000", "153116.393000", "153116.395000", "153116.397000", "153116.400000", "153116.402000", "153116.404000", "153116.407000", "153116.409000", "153116.412000", "153116.414000", "153116.416000", "153116.419000", "153136.342000", "153136.345000", "153136.347000", "153136.350000", "153136.352000", "153136.355000", "153136.357000", "153136.359000", "153136.362000", "153136.364000", "153136.367000", "153136.369000", "153136.371000", "153136.374000", "153136.376000", "153136.378000", "153136.381000", "153136.383000", "153136.386000", "153136.388000", "153136.390000", "153136.393000", "153136.395000", "153136.398000", "153136.400000", "153136.402000", "153136.405000", "153136.407000", "153136.409000", "153136.412000", "153136.414000", "153136.425000", "153136.427000", "153156.342000", "153156.345000", "153156.347000", "153156.350000", "153156.352000", "153156.354000", "153156.357000", "153156.359000", "153156.362000", "153156.364000", "153156.366000", "153156.369000", "153156.371000", "153156.374000", "153156.376000", "153156.378000", "153156.381000", "153156.383000", "153156.386000", "153156.388000", "153156.391000", "153156.393000", "153156.395000", "153156.398000", "153156.400000", "153156.403000", "153156.405000", "153156.407000", "153156.410000", "153156.412000", "153156.415000", "153156.417000", "153156.419000", "153216.342000", "153216.345000", "153216.348000", "153216.350000", "153216.353000", "153216.355000", "153216.358000", "153216.360000", "153216.362000", "153216.365000", "153216.367000", "153216.370000", "153216.372000", "153216.374000", "153216.377000", "153216.379000", "153216.381000", "153216.384000", "153216.386000", "153216.389000", "153216.391000", "153216.393000", "153216.396000", "153216.398000", "153216.401000", "153216.403000", "153216.406000", "153216.408000", "153216.410000", "153216.413000", "153216.415000", "153216.418000", "153236.343000", "153236.346000", "153236.348000", "153236.351000", "153236.353000", "153236.356000", "153236.358000", "153236.360000", "153236.363000", "153236.365000", "153236.368000", "153236.370000", "153236.382000", "153236.385000", "153236.387000", "153236.390000", "153236.392000", "153236.395000", "153236.397000", "153236.399000", "153236.403000", "153236.405000", "153236.408000", "153236.410000", "153236.412000", "153236.415000", "153236.417000", "153236.420000", "153236.422000", "153236.425000", "153236.427000", "153236.430000", "153236.432000", "153245.681000", "153245.684000", "153245.686000", "153245.689000", "153245.691000", "153245.694000", "153245.696000", "153245.699000", "153245.701000", "153245.703000", "153245.706000", "153245.708000", "153245.710000", "153245.713000", "153245.715000", "153245.718000"], "InstanceCreationTime": ["152756.347000", "152756.350000", "152756.352000", "152756.355000", "152756.357000", "152756.359000", "152756.362000", "152756.364000", "152756.366000", "152756.369000", "152756.371000", "152756.374000", "152756.384000", "152756.387000", "152756.389000", "152756.392000", "152756.394000", "152756.397000", "152756.399000", "152756.402000", "152756.404000", "152756.406000", "152756.409000", "152756.412000", "152756.414000", "152756.417000", "152756.419000", "152756.421000", "152756.424000", "152756.433000", "152756.435000", "152756.437000", "152756.440000", "152756.442000", "152756.444000", "152816.342000", "152816.345000", "152816.347000", "152816.350000", "152816.352000", "152816.354000", "152816.357000", "152816.359000", "152816.361000", "152816.378000", "152816.380000", "152816.383000", "152816.385000", "152816.388000", "152816.390000", "152816.392000", "152816.395000", "152816.397000", "152816.399000", "152816.402000", "152816.404000", "152816.407000", "152816.409000", "152816.411000", "152816.414000", "152816.416000", "152816.418000", "152816.421000", "152816.423000", "152816.425000", "152816.428000", "152816.430000", "152816.432000", "152836.342000", "152836.345000", "152836.347000", "152836.350000", "152836.352000", "152836.354000", "152836.357000", "152836.359000", "152836.362000", "152836.364000", "152836.366000", "152836.369000", "152836.371000", "152836.373000", "152836.376000", "152836.378000", "152836.381000", "152836.383000", "152836.389000", "152836.391000", "152836.394000", "152836.396000", "152836.398000", "152836.401000", "152836.403000", "152836.405000", "152836.408000", "152836.410000", "152836.412000", "152836.415000", "152836.417000", "152836.419000", "152836.422000", "152856.342000", "152856.345000", "152856.347000", "152856.349000", "152856.352000", "152856.354000", "152856.357000", "152856.359000", "152856.361000", "152856.364000", "152856.366000", "152856.368000", "152856.371000", "152856.373000", "152856.376000", "152856.378000", "152856.380000", "152856.383000", "152856.385000", "152856.387000", "152856.390000", "152856.392000", "152856.394000", "152856.397000", "152856.399000", "152856.401000", "152856.404000", "152856.410000", "152856.412000", "152856.415000", "152856.417000", "152856.420000", "152856.422000", "152916.342000", "152916.345000", "152916.347000", "152916.350000", "152916.352000", "152916.354000", "152916.357000", "152916.359000", "152916.361000", "152916.364000", "152916.366000", "152916.368000", "152916.371000", "152916.373000", "152916.376000", "152916.378000", "152916.381000", "152916.383000", "152916.385000", "152916.388000", "152916.390000", "152916.393000", "152916.395000", "152916.397000", "152916.400000", "152916.402000", "152916.405000", "152916.407000", "152916.410000", "152916.412000", "152916.414000", "152916.417000", "152936.342000", "152936.345000", "152936.347000", "152936.349000", "152936.352000", "152936.354000", "152936.357000", "152936.359000", "152936.361000", "152936.364000", "152936.366000", "152936.369000", "152936.371000", "152936.378000", "152936.380000", "152936.382000", "152936.385000", "152936.387000", "152936.390000", "152936.392000", "152936.394000", "152936.397000", "152936.399000", "152936.402000", "152936.404000", "152936.406000", "152936.409000", "152936.411000", "152936.414000", "152936.416000", "152936.418000", "152936.421000", "152936.423000", "152956.342000", "152956.345000", "152956.347000", "152956.350000", "152956.352000", "152956.355000", "152956.357000", "152956.359000", "152956.362000", "152956.375000", "152956.377000", "152956.380000", "152956.382000", "152956.385000", "152956.387000", "152956.389000", "152956.392000", "152956.394000", "152956.397000", "152956.399000", "152956.401000", "152956.404000", "152956.406000", "152956.408000", "152956.411000", "152956.413000", "152956.416000", "152956.418000", "152956.420000", "152956.423000", "152956.425000", "152956.427000", "152956.430000", "153016.342000", "153016.345000", "153016.347000", "153016.349000", "153016.352000", "153016.354000", "153016.357000", "153016.359000", "153016.361000", "153016.364000", "153016.366000", "153016.368000", "153016.371000", "153016.373000", "153016.384000", "153016.386000", "153016.389000", "153016.391000", "153016.394000", "153016.396000", "153016.398000", "153016.401000", "153016.403000", "153016.406000", "153016.408000", "153016.410000", "153016.413000", "153016.415000", "153016.417000", "153016.420000", "153016.422000", "153016.425000", "153016.427000", "153036.342000", "153036.345000", "153036.347000", "153036.350000", "153036.352000", "153036.354000", "153036.357000", "153036.359000", "153036.361000", "153036.364000", "153036.366000", "153036.368000", "153036.371000", "153036.373000", "153036.376000", "153036.378000", "153036.381000", "153036.384000", "153036.387000", "153036.389000", "153036.392000", "153036.394000", "153036.397000", "153036.399000", "153036.401000", "153036.404000", "153036.406000", "153036.409000", "153036.411000", "153036.413000", "153036.416000", "153036.418000", "153056.342000", "153056.345000", "153056.347000", "153056.350000", "153056.352000", "153056.354000", "153056.357000", "153056.359000", "153056.362000", "153056.365000", "153056.367000", "153056.370000", "153056.372000", "153056.375000", "153056.377000", "153056.379000", "153056.382000", "153056.384000", "153056.387000", "153056.389000", "153056.391000", "153056.394000", "153056.396000"