{"AcquisitionMatrixPE": 64, "AcquisitionNumber": 1, "AcquisitionTime": "10:36:8.682500", "BandwidthPerPixelPhaseEncode": 28.935, "BaseResolution": 64, "BodyPartExamined": "BRAIN", "CoilCombinationMethod": "Sum of Squares", "ConsistencyInfo": "N4_VE11E_LATEST_20181129", "ConversionSoftware": "dcm2niix", "ConversionSoftwareVersion": "v1.0.20230411", "DerivedVendorReportedEchoSpacing": 0.000540003, "DeviceSerialNumber": "166182", "DwellTime": 3.4e-06, "EchoTime": 0.032, "EchoTrainLength": 64, "EffectiveEchoSpacing": 0.000540003, "FlipAngle": 40, "HeudiconvVersion": "0.13.1", "ImageOrientationPatientDICOM": [0.998855, 0.00646424, -0.0474116, -0.019179, 0.961846, -0.272917], "ImageOrientationText": "Tra>Cor(-15.9)>Sag(-2.5)", "ImageType": ["ORIGINAL", "PRIMARY", "M", "ND", "NORM", "MOSAIC"], "ImagingFrequency": 123.256332, "InPlanePhaseEncodingDirectionDICOM": "COL", "InstitutionAddress": "PEARSE STREET .,City,District,IE,D2", "InstitutionName": "TCIN", "InstitutionalDepartmentName": "MRI", "MRAcquisitionType": "2D", "MagneticFieldStrength": 3, "Manufacturer": "Siemens", "ManufacturersModelName": "Prisma", "Modality": "MR", "MultibandAccelerationFactor": 4, "NonlinearGradientCorrection": false, "PartialFourier": 1, "PatientPosition": "HFS", "PercentPhaseFOV": 100, "PercentSampling": 100, "PhaseEncodingDirection": "j-", "PhaseEncodingSteps": 64, "PhaseResolution": 1, "PixelBandwidth": 2300, "ProcedureStepDescription": "Rhodri^Head BOLD", "ProtocolName": "cmrr_mbep2d_Pictures_AP_RDS", "PulseSequenceDetails": "%SiemensSeq%\\ep2d_bold", "ReceiveCoilActiveElements": "HC2,4,6,7", "ReceiveCoilName": "HeadNeck_64", "ReconMatrixPE": 64, "RefLinesPE": 12, "RepetitionTime": 0.61, "SAR": 0.194564, "ScanOptions": "FS", "ScanningSequence": "EP", "SequenceName": "*epfid2d1_64", "SequenceVariant": "SK", "SeriesDescription": "cmrr_mbep2d_Pictures_AP_RDS", "SeriesNumber": 11, "ShimSetting": [-3549, -7402, 3920, 862, -6, 253, -74, 281], "SliceThickness": 3, "SliceTiming": [0.2625, 0, 0.3275, 0.065, 0.3925, 0.13, 0.4575, 0.195, 0.525, 0.2625, 0, 0.3275, 0.065, 0.3925, 0.13, 0.4575, 0.195, 0.525, 0.2625, 0, 0.3275, 0.065, 0.3925, 0.13, 0.4575, 0.195, 0.525, 0.2625, 0, 0.3275, 0.065, 0.3925, 0.13, 0.4575, 0.195, 0.525], "SoftwareVersions": "syngo MR E11", "SpacingBetweenSlices": 3.3, "StationName": "AWP166182", "TaskName": "pictures", "TotalReadoutTime": 0.0340202, "TxRefAmp": 242.869, "dcmmeta_affine": [[-2.996563673019409, -0.05753698945045471, -0.14466705918312073, 102.0852279663086], [-0.019392721354961395, 2.8855395317077637, -0.9025939702987671, -83.50664520263672], [-0.14223486185073853, 0.8187499046325684, 3.1708667278289795, -115.0565414428711], [0.0, 0.0, 0.0, 1.0]], "dcmmeta_reorient_transform": [[0.0, -1.0, 0.0, 63.0], [1.0, 0.0, 0.0, 0.0], [0.0, 0.0, 1.0, 0.0], [0.0, 0.0, 0.0, 1.0]], "dcmmeta_shape": [64, 64, 36, 237], "dcmmeta_slice_dim": 2, "dcmmeta_version": 0.6, "global": {"const": {"AcquisitionMatrix": [64, 0, 0, 64], "AngioFlag": "N", "BitsAllocated": 16, "BitsStored": 12, "BodyPartExamined": "BRAIN", "Columns": 384, "EchoNumbers": 1, "EchoTime": 32.0, "EchoTrainLength": 64, "FlipAngle": 40.0, "HighBit": 11, "ImageOrientationPatient": [0.99885451992193, 0.00646424068164, -0.0474116190815, -0.0191789962011, 0.96184649148362, -0.2729166409829], "ImagePositionPatient": [-568.704646463, -563.07149087102, 90.28227115648], "ImageType": ["ORIGINAL", "PRIMARY", "M", "ND", "NORM", "MOSAIC"], "ImagedNucleus": "1H", "ImagingFrequency": 123.256332, "InPlanePhaseEncodingDirection": "COL", "MRAcquisitionType": "2D", "MagneticFieldStrength": 3.0, "Manufacturer": "SIEMENS", "ManufacturerModelName": "Prisma", "Modality": "MR", "NumberOfAverages": 1.0, "NumberOfPhaseEncodingSteps": 64, "PercentPhaseFieldOfView": 100.0, "PercentSampling": 100.0, "PerformedProcedureStepStartTime": "100608.587000", "PhotometricInterpretation": "MONOCHROME2", "PixelBandwidth": 2300.0, "PixelRepresentation": 0, "PixelSpacing": [3.0, 3.0], "ProtocolName": "cmrr_mbep2d_Pictures_AP_RDS", "RepetitionTime": 610.0, "Rows": 384, "SAR": 0.19456438167583, "SamplesPerPixel": 1, "ScanOptions": "FS", "ScanningSequence": "EP", "SequenceName": "*epfid2d1_64", "SequenceVariant": "SK", "SeriesDescription": "cmrr_mbep2d_Pictures_AP_RDS", "SeriesNumber": 11, "SeriesTime": "103623.830000", "SliceLocation": -92.189308278805, "SliceThickness": 3.0, "SmallestImagePixelValue": 0, "SoftwareVersions": "syngo MR E11", "SpacingBetweenSlices": 3.3000000249541, "SpecificCharacterSet": "ISO_IR 100", "StudyID": "1", "StudyTime": "100608.462000", "TransmitCoilName": "Body", "VariableFlipAngleFlag": "N", "WindowCenterWidthExplanation": "Algo1"}, "slices": {}}, "time": {"samples": {"AcquisitionNumber": [1, 2, 3, 4, 5, 6, 7, 8, 9, 10, 11, 12, 13, 14, 15, 16, 17, 18, 19, 20, 21, 22, 23, 24, 25, 26, 27, 28, 29, 30, 31, 32, 33, 34, 35, 36, 37, 38, 39, 40, 41, 42, 43, 44, 45, 46, 47, 48, 49, 50, 51, 52, 53, 54, 55, 56, 57, 58, 59, 60, 61, 62, 63, 64, 65, 66, 67, 68, 69, 70, 71, 72, 73, 74, 75, 76, 77, 78, 79, 80, 81, 82, 83, 84, 85, 86, 87, 88, 89, 90, 91, 92, 93, 94, 95, 96, 97, 98, 99, 100, 101, 102, 103, 104, 105, 106, 107, 108, 109, 110, 111, 112, 113, 114, 115, 116, 117, 118, 119, 120, 121, 122, 123, 124, 125, 126, 127, 128, 129, 130, 131, 132, 133, 134, 135, 136, 137, 138, 139, 140, 141, 142, 143, 144, 145, 146, 147, 148, 149, 150, 151, 152, 153, 154, 155, 156, 157, 158, 159, 160, 161, 162, 163, 164, 165, 166, 167, 168, 169, 170, 171, 172, 173, 174, 175, 176, 177, 178, 179, 180, 181, 182, 183, 184, 185, 186, 187, 188, 189, 190, 191, 192, 193, 194, 195, 196, 197, 198, 199, 200, 201, 202, 203, 204, 205, 206, 207, 208, 209, 210, 211, 212, 213, 214, 215, 216, 217, 218, 219, 220, 221, 222, 223, 224, 225, 226, 227, 228, 229, 230, 231, 232, 233, 234, 235, 236, 237], "AcquisitionTime": ["103608.682500", "103609.292500", "103609.902500", "103610.512500", "103611.122500", "103611.732500", "103612.342500", "103612.952500", "103613.562500", "103614.172500", "103614.782500", "103615.392500", "103616.002500", "103616.612500", "103617.222500", "103617.832500", "103618.442500", "103619.052500", "103619.662500", "103620.272500", "103620.882500", "103621.492500", "103622.102500", "103622.712500", "103623.322500", "103623.932500", "103624.542500", "103625.152500", "103625.762500", "103626.372500", "103626.982500", "103627.592500", "103628.202500", "103628.812500", "103629.422500", "103630.032500", "103630.642500", "103631.252500", "103631.862500", "103632.472500", "103633.082500", "103633.692500", "103634.302500", "103634.912500", "103635.522500", "103636.132500", "103636.742500", "103637.352500", "103637.962500", "103638.572500", "103639.182500", "103639.792500", "103640.402500", "103641.012500", "103641.622500", "103642.232500", "103642.842500", "103643.452500", "103644.062500", "103644.672500", "103645.282500", "103645.892500", "103646.502500", "103647.112500", "103647.722500", "103648.332500", "103648.942500", "103649.552500", "103650.162500", "103650.772500", "103651.382500", "103651.992500", "103652.602500", "103653.212500", "103653.822500", "103654.432500", "103655.042500", "103655.652500", "103656.262500", "103656.872500", "103657.482500", "103658.092500", "103658.702500", "103659.312500", "103659.922500", "103700.532500", "103701.142500", "103701.752500", "103702.362500", "103702.972500", "103703.582500", "103704.192500", "103704.802500", "103705.412500", "103706.022500", "103706.632500", "103707.242500", "103707.852500", "103708.462500", "103709.072500", "103709.682500", "103710.292500", "103710.902500", "103711.512500", "103712.122500", "103712.732500", "103713.342500", "103713.952500", "103714.562500", "103715.172500", "103715.782500", "103716.392500", "103717.002500", "103717.612500", "103718.222500", "103718.832500", "103719.442500", "103720.052500", "103720.662500", "103721.272500", "103721.882500", "103722.492500", "103723.102500", "103723.712500", "103724.322500", "103724.932500", "103725.542500", "103726.152500", "103726.762500", "103727.372500", "103727.982500", "103728.592500", "103729.202500", "103729.812500", "103730.422500", "103731.032500", "103731.642500", "103732.252500", "103732.862500", "103733.472500", "103734.082500", "103734.692500", "103735.302500", "103735.912500", "103736.522500", "103737.132500", "103737.742500", "103738.352500", "103738.962500", "103739.572500", "103740.182500", "103740.792500", "103741.402500", "103742.012500", "103742.622500", "103743.232500", "103743.842500", "103744.452500", "103745.062500", "103745.672500", "103746.282500", "103746.892500", "103747.502500", "103748.112500", "103748.722500", "103749.332500", "103749.942500", "103750.552500", "103751.162500", "103751.772500", "103752.382500", "103752.992500", "103753.602500", "103754.212500", "103754.822500", "103755.432500", "103756.042500", "103756.652500", "103757.262500", "103757.872500", "103758.482500", "103759.092500", "103759.702500", "103800.312500", "103800.922500", "103801.532500", "103802.142500", "103802.752500", "103803.362500", "103803.972500", "103804.582500", "103805.192500", "103805.802500", "103806.412500", "103807.022500", "103807.632500", "103808.242500", "103808.852500", "103809.462500", "103810.072500", "103810.682500", "103811.292500", "103811.902500", "103812.512500", "103813.122500", "103813.732500", "103814.342500", "103814.952500", "103815.562500", "103816.172500", "103816.782500", "103817.392500", "103818.002500", "103818.612500", "103819.222500", "103819.832500", "103820.442500", "103821.052500", "103821.662500", "103822.272500", "103822.882500", "103823.492500", "103824.102500", "103824.712500", "103825.322500", "103825.932500", "103826.542500", "103827.152500", "103827.762500", "103828.372500", "103828.982500", "103829.592500", "103830.202500", "103830.812500", "103831.422500", "103832.032500", "103832.642500"], "ContentTime": ["103623.834000", "103623.837000", "103623.839000", "103623.842000", "103623.844000", "103623.846000", "103623.854000", "103623.856000", "103623.859000", "103623.861000", "103623.865000", "103623.868000", "103623.870000", "103623.873000", "103623.875000", "103623.877000", "103623.880000", "103623.882000", "103623.886000", "103623.888000", "103623.891000", "103623.893000", "103623.901000", "103643.829000", "103643.832000", "103643.834000", "103643.836000", "103643.839000", "103643.841000", "103643.844000", "103643.846000", "103643.848000", "103643.861000", "103643.863000", "103643.866000", "103643.868000", "103643.871000", "103643.873000", "103643.875000", "103643.888000", "103643.890000", "103643.893000", "103643.895000", "103643.898000", "103643.900000", "103643.902000", "103643.905000", "103643.907000", "103643.910000", "103643.912000", "103643.914000", "103643.917000", "103643.919000", "103643.921000", "103643.924000", "103643.926000", "103703.828000", "103703.831000", "103703.833000", "103703.836000", "103703.838000", "103703.840000", "103703.843000", "103703.845000", "103703.855000", "103703.858000", "103703.860000", "103703.863000", "103703.865000", "103703.867000", "103703.870000", "103703.872000", "103703.874000", "103703.877000", "103703.879000", "103703.882000", "103703.884000", "103703.886000", "103703.889000", "103703.891000", "103703.894000", "103703.896000", "103703.898000", "103703.901000", "103703.903000", "103703.905000", "103703.908000", "103703.910000", "103703.913000", "103723.828000", "103723.840000", "103723.842000", "103723.845000", "103723.847000", "103723.849000", "103723.852000", "103723.854000", "103723.856000", "103723.859000", "103723.861000", "103723.864000", "103723.866000", "103723.868000", "103723.871000", "103723.873000", "103723.875000", "103723.878000", "103723.880000", "103723.883000", "103723.885000", "103723.887000", "103723.890000", "103723.892000", "103723.895000", "103723.897000", "103723.899000", "103723.902000", "103723.904000", "103723.907000", "103723.909000", "103723.911000", "103723.914000", "103743.828000", "103743.831000", "103743.833000", "103743.835000", "103743.838000", "103743.840000", "103743.843000", "103743.845000", "103743.848000", "103743.850000", "103743.853000", "103743.855000", "103743.857000", "103743.860000", "103743.862000", "103743.865000", "103743.867000", "103743.870000", "103743.872000", "103743.874000", "103743.877000", "103743.879000", "103743.881000", "103743.884000", "103743.886000", "103743.889000", "103743.891000", "103743.893000", "103743.896000", "103743.898000", "103743.901000", "103743.903000", "103803.828000", "103803.831000", "103803.833000", "103803.836000", "103803.838000", "103803.840000", "103803.843000", "103803.845000", "103803.847000", "103803.850000", "103803.852000", "103803.855000", "103803.857000", "103803.859000", "103803.862000", "103803.864000", "103803.867000", "103803.869000", "103803.871000", "103803.874000", "103803.876000", "103803.878000", "103803.881000", "103803.883000", "103803.886000", "103803.888000", "103803.890000", "103803.898000", "103803.901000", "103803.903000", "103803.906000", "103803.908000", "103803.910000", "103823.829000", "103823.832000", "103823.834000", "103823.837000", "103823.839000", "103823.841000", "103823.844000", "103823.846000", "103823.849000", "103823.851000", "103823.854000", "103823.857000", "103823.859000", "103823.862000", "103823.864000", "103823.866000", "103823.869000", "103823.871000", "103823.874000", "103823.876000", "103823.878000", "103823.881000", "103823.883000", "103823.886000", "103823.888000", "103823.890000", "103823.893000", "103823.895000", "103823.898000", "103823.900000", "103823.902000", "103823.905000", "103823.907000", "103834.059000", "103834.062000", "103834.064000", "103834.066000", "103834.069000", "103834.071000", "103834.074000", "103834.076000", "103834.078000", "103834.081000", "103834.083000", "103834.086000", "103834.092000", "103834.094000", "103834.097000", "103834.099000", "103834.102000"], "InstanceCreationTime": ["103623.834000", "103623.837000", "103623.839000", "103623.842000", "103623.844000", "103623.846000", "103623.854000", "103623.856000", "103623.859000", "103623.861000", "103623.865000", "103623.868000", "103623.870000", "103623.873000", "103623.875000", "103623.877000", "103623.880000", "103623.882000", "103623.886000", "103623.888000", "103623.891000", "103623.893000", "103623.901000", "103643.829000", "103643.832000", "103643.834000", "103643.836000", "103643.839000", "103643.841000", "103643.844000", "103643.846000", "103643.848000", "103643.861000", "103643.863000", "103643.866000", "103643.868000", "103643.871000", "103643.873000", "103643.875000", "103643.888000", "103643.890000", "103643.893000", "103643.895000", "103643.898000", "103643.900000", "103643.902000", "103643.905000", "103643.907000", "103643.910000", "103643.912000", "103643.914000", "103643.917000", "103643.919000", "103643.921000", "103643.924000", "103643.926000", "103703.828000", "103703.831000", "103703.833000", "103703.836000", "103703.838000", "103703.840000", "103703.843000", "103703.845000", "103703.855000", "103703.858000", "103703.860000", "103703.863000", "103703.865000", "103703.867000", "103703.870000", "103703.872000", "103703.874000", "103703.877000", "103703.879000", "103703.882000", "103703.884000", "103703.886000", "103703.889000", "103703.891000", "103703.894000", "103703.896000", "103703.898000", "103703.901000", "103703.903000", "103703.905000", "103703.908000", "103703.910000", "103703.913000", "103723.828000", "103723.840000", "103723.842000", "103723.845000", "103723.847000", "103723.849000", "103723.852000", "103723.854000", "103723.856000", "103723.859000", "103723.861000", "103723.864000", "103723.866000", "103723.868000", "103723.871000", "103723.873000", "103723.875000", "103723.878000", "103723.880000", "103723.883000", "103723.885000", "103723.887000", "103723.890000", "103723.892000", "103723.895000", "103723.897000", "103723.899000", "103723.902000", "103723.904000", "103723.907000", "103723.909000", "103723.911000", "103723.914000", "103743.828000", "103743.831000", "103743.833000", "103743.835000", "103743.838000", "103743.840000", "103743.843000", "103743.845000", "103743.848000", "103743.850000", "103743.853000", "103743.855000", "103743.857000", "103743.860000", "103743.862000", "103743.865000", "103743.867000", "103743.870000", "103743.872000", "103743.874000", "103743.877000", "103743.879000", "103743.881000", "103743.884000", "103743.886000", "103743.889000", "103743.891000", "103743.893000", "103743.896000", "103743.898000", "103743.901000", "103743.903000", "103803.828000", "103803.831000", "103803.833000", "103803.836000", "103803.838000", "103803.840000", "103803.843000", "103803.845000", "103803.847000", "103803.850000", "103803.852000", "103803.855000", "103803.857000", "103803.859000", "103803.862000", "103803.864000", "103803.867000", "103803.869000", "103803.871000", "103803.874000", "103803.876000", "103803.878000", "103803.881000", "103803.883000", "103803.886000", "103803.888000", "103803.890000", "103803.898000", "103803.901000", "103803.903000", "103803.906000", "103803.908000", "103803.910000", "103823.829000", "103823.832000", "103823.834000", "103823.837000", "103823.839000", "103823.841000", "103823.844000", "103823.846000", "103823.849000", "103823.851000", "103823.854000", "103823.857000", "103823.859000", "103823.862000", "103823.864000", "103823.866000", "103823.869000", "103823.871000", "103823.874000", "103823.876000", "103823.878000", "103823.881000", "103823.883000", "103823.886000", "103823.888000", "103823.890000", "103823.893000", "103823.895000", "103823.898000", "103823.900000", "103823.902000", "103823.905000", "103823.907000", "103834.059000", "103834.062000", "103834.064000", "103834.066000", "103834.069000", "103834.071000", "103834.074000", "103834.076000", "103834.078000", "103834.081000", "103834.083000", "103834.086000", "103834.092000", "103834.094000", "103834.097000", "103834.099000", "103834.102000"], "InstanceNumber": [1, 2, 3, 4, 5, 6, 7, 8, 9, 10, 11, 12, 13, 14, 15, 16, 17, 18, 19, 20, 21, 22, 23, 24, 25, 26, 27, 28, 29, 30, 31, 32, 33, 34, 35, 36, 37, 38, 39, 40, 41, 42, 43, 44, 45, 46, 47, 48, 49, 50, 51, 52, 53, 54, 55, 56, 57, 58, 59, 60, 61, 62, 63, 64, 65, 66, 67, 68, 69, 70, 71, 72, 73, 74, 75, 76, 77, 78, 79, 80, 81, 82, 83, 84, 85, 86, 87, 88, 89, 90, 91, 92, 93, 94, 95, 96, 97, 98, 99, 100, 101, 102, 103, 104, 105, 106, 107, 108, 109, 110, 111, 112, 113, 114, 115, 116, 117, 118, 119, 120, 121, 122, 123, 124, 125, 126, 127, 128, 129, 130, 131, 132, 133, 134, 135, 136, 137, 138, 139, 140, 141, 142, 143, 144, 145, 146, 147, 148, 149, 150, 151, 152, 153, 154, 155, 156, 157, 158, 159, 160, 161, 162, 163, 164, 165, 166, 167, 168, 169, 170, 171, 172, 173, 174, 175, 176, 177, 178, 179, 180, 181, 182, 183, 184, 185, 186, 187, 188, 189, 190, 191, 192, 193, 194, 195, 196, 197, 198, 199, 200, 201, 202, 203, 204, 205, 206, 207, 208, 209, 210, 211, 212, 213, 214, 215, 216, 217, 218, 219, 220, 221, 222, 223, 224, 225, 226, 227, 228, 229, 230, 231, 232, 233, 234, 235, 236, 237], "LargestImagePixelValue": [932, 923, 892, 854, 833, 1013, 808, 831, 852, 839, 871, 963, 861, 817, 794, 920, 849, 839, 805, 1020, 1073, 838, 848, 769, 782, 770, 783, 781, 830, 844, 838, 779, 781, 846, 827, 894, 813, 827, 827, 829, 855, 821, 852, 867, 881, 840, 823, 886, 903, 907, 878, 849, 882, 842, 915, 855, 892, 873, 866, 913, 884, 906, 870, 937, 870, 918, 965, 863, 859, 930, 934, 887, 912, 874, 867, 985, 888, 891, 838, 908, 983, 929, 886, 863, 862, 917, 858, 889, 908, 845, 908, 841, 851, 865, 848, 851, 853, 924, 870, 896, 995, 979, 904, 907, 914, 987, 861, 925, 853, 854, 907, 866, 880, 858, 899, 964, 945, 878, 864, 878, 820, 842, 869, 828, 841, 875, 848, 870, 904, 910, 982, 957, 964, 926, 974, 913, 1056, 883, 841, 974, 831, 928, 902, 881, 975, 863, 916, 905, 873, 841, 871, 842, 842, 822, 838, 918, 919, 870, 953, 955, 878, 833, 945, 883, 818, 820, 853, 855, 947, 860, 929, 950, 968, 904, 917, 893, 961, 846, 1019, 862, 940, 885, 937, 982, 957, 816, 978, 903, 891, 1000, 816, 907, 890, 1002, 897, 973, 816, 939, 902, 930, 826, 832, 842, 856, 947, 818, 875, 831, 813, 905, 992, 993, 1020, 996, 868, 883, 966, 872, 897, 875, 842, 837, 971, 837, 939, 993, 939, 1036, 973, 902, 881, 824, 901, 855, 943, 849, 852], "WindowCenter": [451.0, 450.0, 450.0, 444.0, 442.0, 450.0, 445.0, 442.0, 443.0, 443.0, 444.0, 447.0, 448.0, 445.0, 442.0, 441.0, 440.0, 441.0, 438.0, 444.0, 448.0, 439.0, 440.0, 436.0, 438.0, 438.0, 439.0, 439.0, 439.0, 439.0, 439.0, 438.0, 439.0, 441.0, 441.0, 443.0, 442.0, 441.0, 441.0, 442.0, 443.0, 443.0, 444.0, 443.0, 445.0, 443.0, 444.0, 445.0, 445.0, 445.0, 443.0, 444.0, 444.0, 442.0, 445.0, 444.0, 443.0, 444.0, 443.0, 444.0, 444.0, 445.0, 443.0, 444.0, 443.0, 444.0, 447.0, 444.0, 444.0, 445.0, 444.0, 444.0, 445.0, 444.0, 443.0, 446.0, 444.0, 445.0, 443.0, 445.0, 446.0, 445.0, 444.0, 443.0, 445.0, 446.0, 446.0, 446.0, 445.0, 445.0, 445.0, 444.0, 445.0, 446.0, 444.0, 445.0, 445.0, 445.0, 446.0, 446.0, 447.0, 446.0, 445.0, 444.0, 445.0, 445.0, 443.0, 445.0, 443.0, 445.0, 445.0, 445.0, 446.0, 446.0, 447.0, 447.0, 447.0, 445.0, 445.0, 444.0, 444.0, 444.0, 445.0, 446.0, 446.0, 447.0, 448.0, 449.0, 449.0, 448.0, 448.0, 447.0, 447.0, 445.0, 445.0, 443.0, 445.0, 440.0, 441.0, 444.0, 440.0, 444.0, 443.0, 442.0, 443.0, 440.0, 443.0, 442.0, 441.0, 442.0, 443.0, 442.0, 443.0, 443.0, 443.0, 444.0, 445.0, 444.0, 446.0, 446.0, 445.0, 443.0, 444.0, 445.0, 443.0, 444.0, 445.0, 446.0, 448.0, 447.0, 448.0, 447.0, 448.0, 446.0, 447.0, 446.0, 447.0, 444.0, 448.0, 444.0, 446.0, 445.0, 446.0, 446.0, 445.0, 443.0, 446.0, 445.0, 444.0, 446.0, 443.0, 445.0, 445.0, 447.0, 445.0, 445.0, 444.0, 446.0, 445.0, 446.0, 445.0, 445.0, 445.0, 447.0, 447.0, 445.0, 447.0, 446.0, 446.0, 447.0, 449.0, 449.0, 449.0, 448.0, 444.0, 445.0, 445.0, 443.0, 443.0, 444.0, 443.0, 444.0, 447.0, 445.0, 446.0, 447.0, 446.0, 447.0, 446.0, 444.0, 441.0, 442.0, 443.0, 442.0, 443.0, 444.0, 444.0], "WindowWidth": [949.0, 948.0, 947.0, 936.0, 932.0, 945.0, 937.0, 932.0, 933.0, 933.0, 934.0, 941.0, 944.0, 938.0, 932.0, 929.0, 928.0, 929.0, 923.0, 936.0, 941.0, 925.0, 928.0, 920.0, 924.0, 924.0, 926.0, 927.0, 927.0, 926.0, 925.0, 924.0, 927.0, 929.0, 930.0, 932.0, 932.0, 931.0, 931.0, 932.0, 934.0, 934.0, 936.0, 934.0, 937.0, 934.0, 937.0, 938.0, 937.0, 938.0, 934.0, 935.0, 936.0, 932.0, 937.0, 936.0, 933.0, 936.0, 934.0, 936.0, 935.0, 937.0, 933.0, 935.0, 934.0, 934.0, 940.0, 936.0, 936.0, 937.0, 936.0, 936.0, 938.0, 935.0, 934.0, 938.0, 935.0, 937.0, 934.0, 938.0, 940.0, 938.0, 937.0, 935.0, 938.0, 939.0, 940.0, 939.0, 938.0, 938.0, 938.0, 937.0, 938.0, 939.0, 935.0, 938.0, 939.0, 938.0, 939.0, 939.0, 941.0, 940.0, 937.0, 936.0, 937.0, 937.0, 933.0, 936.0, 935.0, 937.0, 938.0, 938.0, 939.0, 939.0, 941.0, 942.0, 942.0, 938.0, 939.0, 935.0, 936.0, 935.0, 939.0, 940.0, 941.0, 942.0, 944.0, 945.0, 945.0, 944.0, 944.0, 941.0, 941.0, 938.0, 937.0, 933.0, 936.0, 929.0, 931.0, 934.0, 929.0, 935.0, 932.0, 932.0, 933.0, 928.0, 934.0, 932.0, 931.0, 932.0, 934.0, 932.0, 935.0, 934.0, 935.0, 936.0, 937.0, 936.0, 938.0, 938.0, 937.0, 935.0, 936.0, 937.0, 935.0, 937.0, 937.0, 941.0, 943.0, 941.0, 944.0, 941.0, 943.0, 939.0, 941.0, 939.0, 941.0, 937.0, 943.0, 936.0, 939.0, 937.0, 938.0, 938.0, 937.0, 935.0, 940.0, 938.0, 935.0, 939.0, 935.0, 939.0, 937.0, 940.0, 937.0, 938.0, 936.0, 940.0, 938.0, 939.0, 938.0, 938.0, 938.0, 943.0, 940.0, 939.0, 941.0, 940.0, 941.0, 942.0, 945.0, 945.0, 944.0, 942.0, 936.0, 938.0, 936.0, 934.0, 934.0, 936.0, 935.0, 935.0, 940.0, 937.0, 940.0, 940.0, 938.0, 940.0, 938.0, 936.0, 931.0, 932.0, 933.0, 932.0, 933.0, 936.0, 937.0]}, "slices": {}}, "EventTimestamp": "10-38-40"}