{"AcquisitionMatrixPE": 64, "AcquisitionNumber": 1, "AcquisitionTime": "10:56:10.717500", "BandwidthPerPixelPhaseEncode": 28.935, "BaseResolution": 64, "BodyPartExamined": "BRAIN", "CoilCombinationMethod": "Sum of Squares", "ConsistencyInfo": "N4_VE11E_LATEST_20181129", "ConversionSoftware": "dcm2niix", "ConversionSoftwareVersion": "v1.0.20230411", "DerivedVendorReportedEchoSpacing": 0.000540003, "DeviceSerialNumber": "166182", "DwellTime": 3.4e-06, "EchoTime": 0.032, "EchoTrainLength": 64, "EffectiveEchoSpacing": 0.000540003, "FlipAngle": 40, "HeudiconvVersion": "0.13.1", "ImageOrientationPatientDICOM": [0.974235, -0.106068, 0.199038, 0.117895, 0.991841, -0.0485074], "ImageOrientationText": "Tra>Sag(11.1)>Cor(-4.1)", "ImageType": ["ORIGINAL", "PRIMARY", "M", "ND", "NORM", "MOSAIC"], "ImagingFrequency": 123.256961, "InPlanePhaseEncodingDirectionDICOM": "COL", "InstitutionAddress": "PEARSE STREET .,City,District,IE,D2", "InstitutionName": "TCIN", "InstitutionalDepartmentName": "MRI", "MRAcquisitionType": "2D", "MagneticFieldStrength": 3, "Manufacturer": "Siemens", "ManufacturersModelName": "Prisma", "Modality": "MR", "MultibandAccelerationFactor": 4, "NonlinearGradientCorrection": false, "PartialFourier": 1, "PatientPosition": "HFS", "PercentPhaseFOV": 100, "PercentSampling": 100, "PhaseEncodingDirection": "j-", "PhaseEncodingSteps": 64, "PhaseResolution": 1, "PixelBandwidth": 2300, "ProcedureStepDescription": "Rhodri^Head BOLD", "ProtocolName": "cmrr_mbep2d_bold_Pictures_AP", "PulseSequenceDetails": "%SiemensSeq%\\ep2d_bold", "ReceiveCoilActiveElements": "HC2,4,6,7;SC", "ReceiveCoilName": "HeadNeck_64", "ReconMatrixPE": 64, "RefLinesPE": 12, "RepetitionTime": 0.61, "SAR": 0.23126, "ScanOptions": "FS", "ScanningSequence": "EP", "SequenceName": "*epfid2d1_64", "SequenceVariant": "SK", "SeriesDescription": "cmrr_mbep2d_bold_Pictures_AP", "SeriesNumber": 7, "ShimSetting": [-3514, -7579, 3800, 1068, -173, 56, 638, 139], "SliceThickness": 3, "SliceTiming": [0.2625, 0, 0.3275, 0.065, 0.3925, 0.13, 0.4575, 0.1975, 0.525, 0.2625, 0, 0.3275, 0.065, 0.3925, 0.13, 0.4575, 0.1975, 0.525, 0.2625, 0, 0.3275, 0.065, 0.3925, 0.13, 0.4575, 0.1975, 0.525, 0.2625, 0, 0.3275, 0.065, 0.3925, 0.13, 0.4575, 0.1975, 0.525], "SoftwareVersions": "syngo MR E11", "SpacingBetweenSlices": 3.3, "StationName": "AWP166182", "TaskName": "pictures", "TotalReadoutTime": 0.0340202, "TxRefAmp": 239.967, "dcmmeta_affine": [[-2.922703981399536, 0.35368612408638, 0.6344885230064392, 76.3207015991211], [0.3182051479816437, 2.9755218029022217, -0.23338697850704193, -99.37613677978516], [0.5971152186393738, 0.14552229642868042, 3.230008363723755, -119.7053451538086], [0.0, 0.0, 0.0, 1.0]], "dcmmeta_reorient_transform": [[0.0, -1.0, 0.0, 63.0], [1.0, 0.0, 0.0, 0.0], [0.0, 0.0, 1.0, 0.0], [0.0, 0.0, 0.0, 1.0]], "dcmmeta_shape": [64, 64, 36, 510], "dcmmeta_slice_dim": 2, "dcmmeta_version": 0.6, "global": {"const": {"AcquisitionMatrix": [64, 0, 0, 64], "AngioFlag": "N", "BitsAllocated": 16, "BitsStored": 12, "BodyPartExamined": "BRAIN", "Columns": 384, "EchoNumbers": 1, "EchoTime": 32.0, "EchoTrainLength": 64, "FlipAngle": 40.0, "HighBit": 11, "ImageOrientationPatient": [0.9742346802417, -0.1060683801026, 0.19903840472828, 0.11789537574563, 0.99184056663377, -0.0485074299196], "ImagePositionPatient": [-622.82535417375, -513.25237875762, -182.79230541802], "ImageType": ["ORIGINAL", "PRIMARY", "M", "ND", "NORM", "MOSAIC"], "ImagedNucleus": "1H", "ImagingFrequency": 123.256961, "InPlanePhaseEncodingDirection": "COL", "MRAcquisitionType": "2D", "MagneticFieldStrength": 3.0, "Manufacturer": "SIEMENS", "ManufacturerModelName": "Prisma", "Modality": "MR", "NumberOfAverages": 1.0, "NumberOfPhaseEncodingSteps": 64, "PercentPhaseFieldOfView": 100.0, "PercentSampling": 100.0, "PerformedProcedureStepStartTime": "103709.030000", "PhotometricInterpretation": "MONOCHROME2", "PixelBandwidth": 2300.0, "PixelRepresentation": 0, "PixelSpacing": [3.0, 3.0], "ProtocolName": "cmrr_mbep2d_bold_Pictures_AP", "RepetitionTime": 610.0, "Rows": 384, "SAR": 0.23126020394657, "SamplesPerPixel": 1, "ScanOptions": "FS", "ScanningSequence": "EP", "SequenceName": "*epfid2d1_64", "SequenceVariant": "SK", "SeriesDescription": "cmrr_mbep2d_bold_Pictures_AP", "SeriesNumber": 7, "SeriesTime": "105629.567000", "SliceLocation": -95.46410926896, "SliceThickness": 3.0, "SmallestImagePixelValue": 0, "SoftwareVersions": "syngo MR E11", "SpacingBetweenSlices": 3.2999998930121, "SpecificCharacterSet": "ISO_IR 100", "StudyID": "2", "StudyTime": "103708.945000", "TransmitCoilName": "Body", "VariableFlipAngleFlag": "N", "WindowCenterWidthExplanation": "Algo1"}, "slices": {}}, "time": {"samples": {"AcquisitionNumber": [1, 2, 3, 4, 5, 6, 7, 8, 9, 10, 11, 12, 13, 14, 15, 16, 17, 18, 19, 20, 21, 22, 23, 24, 25, 26, 27, 28, 29, 30, 31, 32, 33, 34, 35, 36, 37, 38, 39, 40, 41, 42, 43, 44, 45, 46, 47, 48, 49, 50, 51, 52, 53, 54, 55, 56, 57, 58, 59, 60, 61, 62, 63, 64, 65, 66, 67, 68, 69, 70, 71, 72, 73, 74, 75, 76, 77, 78, 79, 80, 81, 82, 83, 84, 85, 86, 87, 88, 89, 90, 91, 92, 93, 94, 95, 96, 97, 98, 99, 100, 101, 102, 103, 104, 105, 106, 107, 108, 109, 110, 111, 112, 113, 114, 115, 116, 117, 118, 119, 120, 121, 122, 123, 124, 125, 126, 127, 128, 129, 130, 131, 132, 133, 134, 135, 136, 137, 138, 139, 140, 141, 142, 143, 144, 145, 146, 147, 148, 149, 150, 151, 152, 153, 154, 155, 156, 157, 158, 159, 160, 161, 162, 163, 164, 165, 166, 167, 168, 169, 170, 171, 172, 173, 174, 175, 176, 177, 178, 179, 180, 181, 182, 183, 184, 185, 186, 187, 188, 189, 190, 191, 192, 193, 194, 195, 196, 197, 198, 199, 200, 201, 202, 203, 204, 205, 206, 207, 208, 209, 210, 211, 212, 213, 214, 215, 216, 217, 218, 219, 220, 221, 222, 223, 224, 225, 226, 227, 228, 229, 230, 231, 232, 233, 234, 235, 236, 237, 238, 239, 240, 241, 242, 243, 244, 245, 246, 247, 248, 249, 250, 251, 252, 253, 254, 255, 256, 257, 258, 259, 260, 261, 262, 263, 264, 265, 266, 267, 268, 269, 270, 271, 272, 273, 274, 275, 276, 277, 278, 279, 280, 281, 282, 283, 284, 285, 286, 287, 288, 289, 290, 291, 292, 293, 294, 295, 296, 297, 298, 299, 300, 301, 302, 303, 304, 305, 306, 307, 308, 309, 310, 311, 312, 313, 314, 315, 316, 317, 318, 319, 320, 321, 322, 323, 324, 325, 326, 327, 328, 329, 330, 331, 332, 333, 334, 335, 336, 337, 338, 339, 340, 341, 342, 343, 344, 345, 346, 347, 348, 349, 350, 351, 352, 353, 354, 355, 356, 357, 358, 359, 360, 361, 362, 363, 364, 365, 366, 367, 368, 369, 370, 371, 372, 373, 374, 375, 376, 377, 378, 379, 380, 381, 382, 383, 384, 385, 386, 387, 388, 389, 390, 391, 392, 393, 394, 395, 396, 397, 398, 399, 400, 401, 402, 403, 404, 405, 406, 407, 408, 409, 410, 411, 412, 413, 414, 415, 416, 417, 418, 419, 420, 421, 422, 423, 424, 425, 426, 427, 428, 429, 430, 431, 432, 433, 434, 435, 436, 437, 438, 439, 440, 441, 442, 443, 444, 445, 446, 447, 448, 449, 450, 451, 452, 453, 454, 455, 456, 457, 458, 459, 460, 461, 462, 463, 464, 465, 466, 467, 468, 469, 470, 471, 472, 473, 474, 475, 476, 477, 478, 479, 480, 481, 482, 483, 484, 485, 486, 487, 488, 489, 490, 491, 492, 493, 494, 495, 496, 497, 498, 499, 500, 501, 502, 503, 504, 505, 506, 507, 508, 509, 510], "AcquisitionTime": ["105610.717500", "105611.327500", "105611.937500", "105612.547500", "105613.157500", "105613.767500", "105614.377500", "105614.987500", "105615.597500", "105616.207500", "105616.817500", "105617.427500", "105618.037500", "105618.647500", "105619.257500", "105619.867500", "105620.477500", "105621.087500", "105621.697500", "105622.307500", "105622.917500", "105623.527500", "105624.137500", "105624.747500", "105625.357500", "105625.967500", "105626.577500", "105627.187500", "105627.797500", "105628.407500", "105629.017500", "105629.627500", "105630.237500", "105630.847500", "105631.457500", "105632.067500", "105632.677500", "105633.287500", "105633.897500", "105634.507500", "105635.117500", "105635.727500", "105636.337500", "105636.947500", "105637.557500", "105638.167500", "105638.777500", "105639.387500", "105639.997500", "105640.607500", "105641.217500", "105641.827500", "105642.437500", "105643.047500", "105643.657500", "105644.267500", "105644.877500", "105645.487500", "105646.097500", "105646.707500", "105647.317500", "105647.927500", "105648.537500", "105649.147500", "105649.757500", "105650.367500", "105650.977500", "105651.587500", "105652.197500", "105652.807500", "105653.417500", "105654.027500", "105654.637500", "105655.247500", "105655.857500", "105656.467500", "105657.077500", "105657.687500", "105658.297500", "105658.907500", "105659.517500", "105700.127500", "105700.737500", "105701.347500", "105701.957500", "105702.567500", "105703.177500", "105703.787500", "105704.397500", "105705.007500", "105705.617500", "105706.227500", "105706.837500", "105707.447500", "105708.057500", "105708.667500", "105709.277500", "105709.887500", "105710.497500", "105711.107500", "105711.717500", "105712.327500", "105712.937500", "105713.547500", "105714.157500", "105714.767500", "105715.377500", "105715.987500", "105716.597500", "105717.207500", "105717.817500", "105718.427500", "105719.037500", "105719.647500", "105720.257500", "105720.867500", "105721.477500", "105722.087500", "105722.697500", "105723.307500", "105723.917500", "105724.527500", "105725.137500", "105725.747500", "105726.357500", "105726.967500", "105727.577500", "105728.187500", "105728.797500", "105729.407500", "105730.017500", "105730.627500", "105731.237500", "105731.847500", "105732.457500", "105733.067500", "105733.677500", "105734.287500", "105734.897500", "105735.507500", "105736.117500", "105736.727500", "105737.337500", "105737.947500", "105738.557500", "105739.167500", "105739.777500", "105740.387500", "105740.997500", "105741.607500", "105742.217500", "105742.827500", "105743.437500", "105744.047500", "105744.657500", "105745.267500", "105745.877500", "105746.487500", "105747.097500", "105747.707500", "105748.317500", "105748.927500", "105749.537500", "105750.147500", "105750.757500", "105751.367500", "105751.977500", "105752.587500", "105753.197500", "105753.807500", "105754.417500", "105755.027500", "105755.637500", "105756.247500", "105756.857500", "105757.467500", "105758.077500", "105758.687500", "105759.297500", "105759.907500", "105800.517500", "105801.127500", "105801.737500", "105802.347500", "105802.957500", "105803.567500", "105804.177500", "105804.787500", "105805.397500", "105806.007500", "105806.617500", "105807.227500", "105807.837500", "105808.447500", "105809.057500", "105809.667500", "105810.277500", "105810.887500", "105811.497500", "105812.107500", "105812.717500", "105813.327500", "105813.937500", "105814.547500", "105815.157500", "105815.767500", "105816.377500", "105816.987500", "105817.597500", "105818.207500", "105818.817500", "105819.427500", "105820.037500", "105820.647500", "105821.257500", "105821.867500", "105822.477500", "105823.087500", "105823.697500", "105824.307500", "105824.917500", "105825.527500", "105826.137500", "105826.747500", "105827.357500", "105827.967500", "105828.577500", "105829.187500", "105829.797500", "105830.407500", "105831.017500", "105831.627500", "105832.237500", "105832.847500", "105833.457500", "105834.067500", "105834.677500", "105835.287500", "105835.897500", "105836.507500", "105837.117500", "105837.727500", "105838.337500", "105838.947500", "105839.557500", "105840.167500", "105840.777500", "105841.387500", "105841.997500", "105842.607500", "105843.217500", "105843.827500", "105844.437500", "105845.047500", "105845.657500", "105846.267500", "105846.877500", "105847.487500", "105848.097500", "105848.707500", "105849.317500", "105849.927500", "105850.537500", "105851.147500", "105851.757500", "105852.367500", "105852.977500", "105853.587500", "105854.197500", "105854.807500", "105855.417500", "105856.027500", "105856.637500", "105857.247500", "105857.857500", "105858.467500", "105859.077500", "105859.687500", "105900.297500", "105900.907500", "105901.517500", "105902.127500", "105902.737500", "105903.347500", "105903.957500", "105904.567500", "105905.177500", "105905.787500", "105906.397500", "105907.007500", "105907.617500", "105908.227500", "105908.837500", "105909.447500", "105910.057500", "105910.667500", "105911.277500", "105911.887500", "105912.497500", "105913.107500", "105913.717500", "105914.327500", "105914.937500", "105915.547500", "105916.157500", "105916.767500", "105917.377500", "105917.987500", "105918.597500", "105919.207500", "105919.817500", "105920.427500", "105921.037500", "105921.647500", "105922.257500", "105922.867500", "105923.477500", "105924.087500", "105924.697500", "105925.307500", "105925.917500", "105926.527500", "105927.137500", "105927.747500", "105928.357500", "105928.967500", "105929.577500", "105930.187500", "105930.797500", "105931.407500", "105932.017500", "105932.627500", "105933.237500", "105933.847500", "105934.457500", "105935.067500", "105935.677500", "105936.287500", "105936.897500", "105937.507500", "105938.117500", "105938.727500", "105939.337500", "105939.947500", "105940.557500", "105941.167500", "105941.777500", "105942.387500", "105942.997500", "105943.607500", "105944.217500", "105944.827500", "105945.437500", "105946.047500", "105946.657500", "105947.267500", "105947.877500", "105948.487500", "105949.097500", "105949.707500", "105950.317500", "105950.927500", "105951.537500", "105952.147500", "105952.757500", "105953.367500", "105953.977500", "105954.587500", "105955.197500", "105955.807500", "105956.417500", "105957.027500", "105957.637500", "105958.247500", "105958.857500", "105959.467500", "110000.077500", "110000.687500", "110001.297500", "110001.907500", "110002.517500", "110003.127500", "110003.737500", "110004.347500", "110004.957500", "110005.567500", "110006.177500", "110006.787500", "110007.397500", "110008.007500", "110008.617500", "110009.227500", "110009.837500", "110010.447500", "110011.057500", "110011.667500", "110012.277500", "110012.887500", "110013.497500", "110014.107500", "110014.717500", "110015.327500", "110015.937500", "110016.547500", "110017.157500", "110017.767500", "110018.377500", "110018.987500", "110019.597500", "110020.207500", "110020.817500", "110021.427500", "110022.037500", "110022.647500", "110023.257500", "110023.867500", "110024.477500", "110025.087500", "110025.697500", "110026.307500", "110026.917500", "110027.527500", "110028.137500", "110028.747500", "110029.357500", "110029.967500", "110030.577500", "110031.187500", "110031.797500", "110032.407500", "110033.017500", "110033.627500", "110034.237500", "110034.847500", "110035.457500", "110036.067500", "110036.677500", "110037.287500", "110037.897500", "110038.507500", "110039.117500", "110039.727500", "110040.337500", "110040.947500", "110041.557500", "110042.167500", "110042.777500", "110043.387500", "110043.997500", "110044.607500", "110045.217500", "110045.827500", "110046.437500", "110047.047500", "110047.657500", "110048.267500", "110048.877500", "110049.487500", "110050.097500", "110050.707500", "110051.317500", "110051.927500", "110052.537500", "110053.147500", "110053.757500", "110054.367500", "110054.977500", "110055.587500", "110056.197500", "110056.807500", "110057.417500", "110058.027500", "110058.637500", "110059.247500", "110059.857500", "110100.467500", "110101.077500", "110101.687500", "110102.297500", "110102.907500", "110103.517500", "110104.127500", "110104.737500", "110105.347500", "110105.957500", "110106.567500", "110107.177500", "110107.787500", "110108.397500", "110109.007500", "110109.617500", "110110.227500", "110110.837500", "110111.447500", "110112.057500", "110112.667500", "110113.277500", "110113.887500", "110114.497500", "110115.107500", "110115.717500", "110116.327500", "110116.937500", "110117.547500", "110118.157500", "110118.767500", "110119.377500", "110119.987500", "110120.597500", "110121.207500"], "ContentTime": ["105629.571000", "105629.582000", "105629.584000", "105629.586000", "105629.589000", "105629.591000", "105629.594000", "105629.596000", "105629.599000", "105629.609000", "105629.612000", "105629.614000", "105629.616000", "105629.619000", "105629.621000", "105629.624000", "105629.626000", "105629.636000", "105629.639000", "105629.641000", "105629.643000", "105629.646000", "105629.648000", "105629.651000", "105629.653000", "105629.656000", "105629.658000", "105629.660000", "105629.663000", "105629.665000", "105649.566000", "105649.569000", "105649.571000", "105649.573000", "105649.583000", "105649.586000", "105649.588000", "105649.591000", "105649.593000", "105649.596000", "105649.598000", "105649.600000", "105649.603000", "105649.605000", "105649.608000", "105649.610000", "105649.613000", "105649.615000", "105649.617000", "105649.620000", "105649.622000", "105649.624000", "105649.627000", "105649.629000", "105649.632000", "105649.634000", "105649.636000", "105649.639000", "105649.641000", "105649.644000", "105649.646000", "105649.648000", "105709.567000", "105709.570000", "105709.572000", "105709.575000", "105709.577000", "105709.580000", "105709.582000", "105709.585000", "105709.587000", "105709.590000", "105709.592000", "105709.595000", "105709.597000", "105709.600000", "105709.602000", "105709.605000", "105709.607000", "105709.610000", "105709.612000", "105709.615000", "105709.617000", "105709.619000", "105709.622000", "105709.624000", "105709.627000", "105709.629000", "105709.631000", "105709.634000", "105709.636000", "105709.639000", "105709.641000", "105709.644000", "105709.646000", "105729.567000", "105729.570000", "105729.572000", "105729.575000", "105729.577000", "105729.580000", "105729.582000", "105729.584000", "105729.587000", "105729.589000", "105729.592000", "105729.594000", "105729.596000", "105729.599000", "105729.601000", "105729.604000", "105729.606000", "105729.608000", "105729.611000", "105729.613000", "105729.616000", "105729.618000", "105729.620000", "105729.623000", "105729.625000", "105729.628000", "105729.630000", "105729.633000", "105729.635000", "105729.637000", "105729.640000", "105729.642000", "105729.644000", "105749.567000", "105749.571000", "105749.573000", "105749.576000", "105749.578000", "105749.581000", "105749.583000", "105749.586000", "105749.588000", "105749.592000", "105749.595000", "105749.597000", "105749.600000", "105749.603000", "105749.606000", "105749.610000", "105749.613000", "105749.616000", "105749.619000", "105749.622000", "105749.625000", "105749.627000", "105749.630000", "105749.633000", "105749.636000", "105749.638000", "105749.641000", "105749.644000", "105749.646000", "105749.649000", "105749.652000", "105749.655000", "105749.659000", "105809.566000", "105809.569000", "105809.572000", "105809.574000", "105809.577000", "105809.579000", "105809.582000", "105809.584000", "105809.587000", "105809.589000", "105809.592000", "105809.594000", "105809.596000", "105809.599000", "105809.601000", "105809.604000", "105809.606000", "105809.609000", "105809.611000", "105809.613000", "105809.616000", "105809.618000", "105809.621000", "105809.623000", "105809.625000", "105809.628000", "105809.630000", "105809.633000", "105809.635000", "105809.637000", "105809.640000", "105809.642000", "105809.645000", "105829.566000", "105829.569000", "105829.572000", "105829.574000", "105829.576000", "105829.579000", "105829.582000", "105829.584000", "105829.586000", "105829.589000", "105829.591000", "105829.594000", "105829.596000", "105829.599000", "105829.602000", "105829.605000", "105829.607000", "105829.610000", "105829.612000", "105829.615000", "105829.617000", "105829.620000", "105829.622000", "105829.625000", "105829.628000", "105829.630000", "105829.633000", "105829.636000", "105829.638000", "105829.640000", "105829.643000", "105829.645000", "105849.566000", "105849.569000", "105849.571000", "105849.574000", "105849.576000", "105849.579000", "105849.582000", "105849.585000", "105849.587000", "105849.590000", "105849.592000", "105849.595000", "105849.597000", "105849.599000", "105849.602000", "105849.604000", "105849.607000", "105849.609000", "105849.611000", "105849.614000", "105849.616000", "105849.619000", "105849.621000", "105849.623000", "105849.626000", "105849.628000", "105849.631000", "105849.634000", "105849.636000", "105849.650000", "105849.653000", "105849.655000", "105849.658000", "105909.566000", "105909.569000", "105909.571000", "105909.574000", "105909.576000", "105909.579000", "105909.581000", "105909.583000", "105909.586000", "105909.588000", "105909.591000", "105909.593000", "105909.596000", "105909.598000", "105909.601000", "105909.603000", "105909.606000", "105909.608000", "105909.610000", "105909.613000", "105909.615000", "105909.618000", "105909.620000", "105909.622000", "105909.625000", "105909.627000", "105909.629000", "105909.632000", "105909.634000", "105909.637000", "105909.639000", "105909.641000", "105909.644000", "105929.567000", "105929.570000", "105929.572000", "105929.575000", "105929.577000", "105929.580000", "105929.582000", "105929.584000", "105929.587000", "105929.589000", "105929.592000", "105929.594000", "105929.597000", "105929.599000", "105929.602000", "105929.604000", "105929.606000", "105929.609000", "105929.611000", "105929.614000", "105929.616000", "105929.619000", "105929.621000", "105929.623000", "105929.626000", "105929.628000", "105929.631000", "105929.633000", "105929.635000", "105929.638000", "105929.640000", "105929.643000", "105929.645000", "105949.567000", "105949.570000", "105949.573000", "105949.575000", "105949.577000", "105949.580000", "105949.582000", "105949.585000", "105949.587000", "105949.590000", "105949.592000", "105949.595000", "105949.597000", "105949.599000", "105949.602000", "105949.605000", "105949.607000", "105949.609000", "105949.612000", "105949.614000", "105949.617000", "105949.619000", "105949.621000", "105949.624000", "105949.626000", "105949.629000", "105949.631000", "105949.633000", "105949.636000", "105949.638000", "105949.641000", "105949.643000", "105949.645000", "110009.567000", "110009.570000", "110009.572000", "110009.575000", "110009.577000", "110009.580000", "110009.582000", "110009.584000", "110009.587000", "110009.590000", "110009.592000", "110009.595000", "110009.597000", "110009.600000", "110009.602000", "110009.605000", "110009.607000", "110009.609000", "110009.612000", "110009.614000", "110009.617000", "110009.619000", "110009.622000", "110009.624000", "110009.627000", "110009.629000", "110009.631000", "110009.640000", "110009.643000", "110009.645000", "110009.648000", "110009.650000", "110029.566000", "110029.569000", "110029.571000", "110029.574000", "110029.576000", "110029.579000", "110029.581000", "110029.583000", "110029.586000", "110029.588000", "110029.591000", "110029.593000", "110029.596000", "110029.598000", "110029.601000", "110029.603000", "110029.605000", "110029.608000", "110029.610000", "110029.613000", "110029.616000", "110029.618000", "110029.621000", "110029.623000", "110029.626000", "110029.628000", "110029.631000", "110029.633000", "110029.635000", "110029.638000", "110029.640000", "110029.643000", "110029.645000", "110049.566000", "110049.569000", "110049.571000", "110049.574000", "110049.577000", "110049.579000", "110049.581000", "110049.584000", "110049.586000", "110049.589000", "110049.591000", "110049.594000", "110049.596000", "110049.599000", "110049.601000", "110049.604000", "110049.606000", "110049.608000", "110049.611000", "110049.613000", "110049.616000", "110049.618000", "110049.621000", "110049.623000", "110049.625000", "110049.628000", "110049.630000", "110049.633000", "110049.635000", "110049.638000", "110049.640000", "110049.642000", "110049.645000", "110109.566000", "110109.569000", "110109.571000", "110109.574000", "110109.576000", "110109.578000", "110109.590000", "110109.593000", "110109.595000", "110109.598000", "110109.600000", "110109.603000", "110109.605000", "110109.608000", "110109.610000", "110109.612000", "110109.615000", "110109.617000", "110109.620000", "110109.622000", "110109.625000", "110109.627000", "110109.630000", "110109.632000", "110109.635000", "110109.637000", "110109.639000", "110109.642000", "110109.644000", "110109.647000", "110109.649000", "110109.651000", "110109.654000", "110122.210000", "110122.213000", "110122.217000", "110122.220000", "110122.223000", "110122.225000", "110122.228000", "110122.230000", "110122.233000", "110122.235000", "110122.238000", "110122.240000", "110122.243000", "110122.245000", "110122.247000", "110122.250000", "110122.252000", "110122.255000", "110122.257000", "110122.260000", "110122.262000"], "InstanceCreationTime": ["105629.571000", "105629.582000", "105629.584000", "105629.586000", "105629.589000", "105629.591000", "105629.594000", "105629.596000", "105629.599000", "105629.609000", "105629.612000", "105629.614000", "105629.616000", "105629.619000", "105629.621000", "105629.624000", "105629.626000", "105629.636000", "105629.639000", "105629.641000", "105629.643000", "105629.646000", "105629.648000", "105629.651000", "105629.653000", "105629.656000", "105629.658000", "105629.660000", "105629.663000", "105629.665000", "105649.566000", "105649.569000", "105649.571000", "105649.573000", "105649.583000", "105649.586000", "105649.588000", "105649.591000", "105649.593000", "105649.596000", "105649.598000", "105649.600000", "105649.603000", "105649.605000", "105649.608000", "105649.610000", "105649.613000", "105649.615000", "105649.617000", "105649.620000", "105649.622000", "105649.624000", "105649.627000", "105649.629000", "105649.632000", "105649.634000", "105649.636000", "105649.639000", "105649.641000", "105649.644000", "105649.646000", "105649.648000", "105709.567000", "105709.570000", "105709.572000", "105709.575000", "105709.577000", "105709.580000", "105709.582000", "105709.585000", "105709.587000", "105709.590000", "105709.592000", "105709.595000", "105709.597000", "105709.600000", "105709.602000", "105709.605000", "105709.607000", "105709.610000", "105709.612000", "105709.615000", "105709.617000", "105709.619000", "105709.622000", "105709.624000", "105709.627000", "105709.629000", "105709.631000", "105709.634000", "105709.636000", "105709.639000", "105709.641000", "105709.644000", "105709.646000", "105729.567000", "105729.570000", "105729.572000", "105729.575000", "105729.577000", "105729.580000", "105729.582000", "105729.584000", "105729.587000", "105729.589000", "105729.592000", "105729.594000", "105729.596000", "105729.599000", "105729.601000", "105729.604000", "105729.606000", "105729.608000", "105729.611000", "105729.613000", "105729.616000", "105729.618000", "105729.620000", "105729.623000", "105729.625000", "105729.628000", "105729.630000", "105729.633000", "105729.635000", "105729.637000", "105729.640000", "105729.642000", "105729.644000", "105749.567000", "105749.571000", "105749.573000", "105749.576000", "105749.578000", "105749.581000", "105749.583000", "105749.586000", "105749.588000", "105749.592000", "105749.595000", "105749.597000", "105749.600000", "105749.603000", "105749.606000", "105749.610000", "105749.613000", "105749.616000", "105749.619000", "105749.622000", "105749.625000", "105749.627000", "105749.630000", "105749.633000", "105749.636000", "105749.638000", "105749.641000", "105749.644000", "105749.646000", "105749.649000", "105749.652000", "105749.655000", "105749.659000", "105809.566000", "105809.569000", "105809.572000", "105809.574000", "105809.577000", "105809.579000", "105809.582000", "105809.584000", "105809.587000", "105809.589000", "105809.592000", "105809.594000", "105809.596000", "105809.599000", "105809.601000", "105809.604000", "105809.606000", "105809.609000", "105809.611000", "105809.613000", "105809.616000", "105809.618000", "105809.621000", "105809.623000", "105809.625000", "105809.628000", "105809.630000", "105809.633000", "105809.635000", "105809.637000", "105809.640000", "105809.642000", "105809.645000", "105829.566000", "105829.569000", "105829.572000", "105829.574000", "105829.576000", "105829.579000", "105829.582000", "105829.584000", "105829.586000", "105829.589000", "105829.591000", "105829.594000", "105829.596000", "105829.599000", "105829.602000", "105829.605000", "105829.607000", "105829.610000", "105829.612000", "105829.615000", "105829.617000", "105829.620000", "105829.622000", "105829.625000", "105829.628000", "105829.630000", "105829.633000", "105829.636000", "105829.638000", "105829.640000", "105829.643000", "105829.645000", "105849.566000", "105849.569000", "105849.571000", "105849.574000", "105849.576000", "105849.579000", "105849.582000", "105849.585000", "105849.587000", "105849.590000", "105849.592000", "105849.595000", "105849.597000", "105849.599000", "105849.602000", "105849.604000", "105849.607000", "105849.609000", "105849.611000", "105849.614000", "105849.616000", "105849.619000", "105849.621000", "105849.623000", "105849.626000", "105849.628000", "105849.631000", "105849.634000", "105849.636000", "105849.650000", "105849.653000", "105849.655000", "105849.658000", "105909.566000", "105909.569000", "105909.571000", "105909.574000", "105909.576000", "105909.579000", "105909.581000", "105909.583000", "105909.586000", "105909.588000", "105909.591000", "105909.593000", "105909.596000", "105909.598000", "105909.601000", "105909.603000", "105909.606000", "105909.608000", "105909.610000", "105909.613000", "105909.615000", "105909.618000", "105909.620000", "105909.622000", "105909.625000", "105909.627000", "105909.629000", "105909.632000", "105909.634000", "105909.637000", "105909.639000", "105909.641000", "105909.644000", "105929.567000", "105929.570000", "105929.572000", "105929.575000", "105929.577000", "105929.580000", "105929.582000", "105929.584000", "105929.587000", "105929.589000", "105929.592000", "105929.594000", "105929.597000", "105929.599000", "105929.602000", "105929.604000", "105929.606000", "105929.609000", "105929.611000", "105929.614000", "105929.616000", "105929.619000", "105929.621000", "105929.623000", "105929.626000", "105929.628000", "105929.631000", "105929.633000", "1059