{"AcquisitionMatrixPE": 64, "AcquisitionNumber": 1, "AcquisitionTime": "14:44:14.735000", "BandwidthPerPixelPhaseEncode": 28.935, "BaseResolution": 64, "BodyPartExamined": "BRAIN", "CoilString": "HC2_4_6_7", "ConsistencyInfo": "N4_VE11E_LATEST_20181129", "ConversionSoftware": "dcm2niix", "ConversionSoftwareVersion": "v1.0.20190902", "DerivedVendorReportedEchoSpacing": 0.000540003, "DeviceSerialNumber": "166182", "DwellTime": 3.4e-06, "EchoTime": 0.032, "EchoTrainLength": 64, "EffectiveEchoSpacing": 0.000540003, "FlipAngle": 40, "ImageOrientationPatientDICOM": [0.999644, 0.0131536, 0.0231985, -0.0113411, 0.996997, -0.0766033], "ImageType": ["ORIGINAL", "PRIMARY", "M", "ND", "NORM", "MOSAIC"], "ImagingFrequency": 123.256, "InPlanePhaseEncodingDirectionDICOM": "COL", "InstitutionAddress": "PEARSE_STREET_._City_District_IE_D2", "InstitutionName": "TCIN", "InstitutionalDepartmentName": "MRI", "MRAcquisitionType": "2D", "MagneticFieldStrength": 3, "Manufacturer": "Siemens", "ManufacturersModelName": "Prisma", "Modality": "MR", "MultibandAccelerationFactor": 4, "PartialFourier": 1, "PatientPosition": "HFS", "PercentPhaseFOV": 100, "PhaseEncodingDirection": "j-", "PhaseEncodingSteps": 64, "PhaseResolution": 1, "PixelBandwidth": 2300, "ProcedureStepDescription": "Rhodri_Head_BOLD", "ProtocolName": "cmrr_mbep2d_Pictures_AP_RDS", "PulseSequenceDetails": "%SiemensSeq%_ep2d_bold", "ReceiveCoilActiveElements": "HC2,4,6,7", "ReceiveCoilName": "HeadNeck_64", "ReconMatrixPE": 64, "RefLinesPE": 12, "RepetitionTime": 0.61, "SAR": 0.370687, "ScanOptions": "FS", "ScanningSequence": "EP", "SequenceName": "_epfid2d1_64", "SequenceVariant": "SK", "SeriesDescription": "cmrr_mbep2d_Pictures_AP_RDS", "SeriesNumber": 8, "ShimSetting": [-3539, -7523, 3871, 606, -150, 543, 201, 34], "SliceThickness": 3, "SliceTiming": [0.2625, 0, 0.33, 0.0675, 0.395, 0.1325, 0.46, 0.1975, 0.525, 0.2625, 0, 0.33, 0.0675, 0.395, 0.1325, 0.46, 0.1975, 0.525, 0.2625, 0, 0.33, 0.0675, 0.395, 0.1325, 0.46, 0.1975, 0.525, 0.2625, 0, 0.33, 0.0675, 0.395, 0.1325, 0.46, 0.1975, 0.525], "SoftwareVersions": "syngo_MR_E11", "SpacingBetweenSlices": 3.3, "StationName": "AWP166182", "TaskName": "pictures", "TotalReadoutTime": 0.0340202, "TxRefAmp": 282.84, "dcmmeta_affine": [[-2.9989330768585205, -0.034023184329271317, 0.07965013384819031, 99.2994155883789], [-0.039460815489292145, 2.9909913539886475, -0.25183284282684326, -85.5396728515625], [0.06959536671638489, 0.22980996966362, 3.2894127368927, -113.4704360961914], [0.0, 0.0, 0.0, 1.0]], "dcmmeta_reorient_transform": [[0.0, -1.0, 0.0, 63.0], [1.0, 0.0, 0.0, 0.0], [0.0, 0.0, 1.0, 0.0], [0.0, 0.0, 0.0, 1.0]], "dcmmeta_shape": [64, 64, 36, 510], "dcmmeta_slice_dim": 2, "dcmmeta_version": 0.6, "global": {"const": {"AcquisitionMatrix": [64, 0, 0, 64], "AngioFlag": "N", "BitsAllocated": 16, "BitsStored": 12, "BodyPartExamined": "BRAIN", "Columns": 384, "EchoNumbers": 1, "EchoTime": 32.0, "EchoTrainLength": 64, "FlipAngle": 40.0, "HighBit": 11, "ImageOrientationPatient": [0.99964434390875, 0.01315360534412, 0.0231984559335, -0.0113410617429, 0.99699714716549, -0.0766033214842], "ImagePositionPatient": [-571.54153345355, -587.76514790248, -73.358075396872], "ImageType": ["ORIGINAL", "PRIMARY", "M", "ND", "NORM", "MOSAIC"], "ImagedNucleus": "1H", "ImagingFrequency": 123.255709, "InPlanePhaseEncodingDirection": "COL", "MRAcquisitionType": "2D", "MagneticFieldStrength": 3.0, "Manufacturer": "SIEMENS", "ManufacturerModelName": "Prisma", "Modality": "MR", "NumberOfAverages": 1.0, "NumberOfPhaseEncodingSteps": 64, "PercentPhaseFieldOfView": 100.0, "PercentSampling": 100.0, "PerformedProcedureStepStartTime": "142637.531000", "PhotometricInterpretation": "MONOCHROME2", "PixelBandwidth": 2300.0, "PixelRepresentation": 0, "PixelSpacing": [3.0, 3.0], "ProtocolName": "cmrr_mbep2d_Pictures_AP_RDS", "RepetitionTime": 610.0, "Rows": 384, "SAR": 0.37068732147544, "SamplesPerPixel": 1, "ScanOptions": "FS", "ScanningSequence": "EP", "SequenceName": "*epfid2d1_64", "SequenceVariant": "SK", "SeriesDescription": "cmrr_mbep2d_Pictures_AP_RDS", "SeriesNumber": 8, "SeriesTime": "144438.470000", "SliceLocation": -104.1818768593, "SliceThickness": 3.0, "SmallestImagePixelValue": 0, "SoftwareVersions": "syngo MR E11", "SpacingBetweenSlices": 3.2999999916323, "SpecificCharacterSet": "ISO_IR 100", "StudyID": "2", "StudyTime": "142637.485000", "TransmitCoilName": "Body", "VariableFlipAngleFlag": "N", "WindowCenterWidthExplanation": "Algo1"}, "slices": {}}, "time": {"samples": {"AcquisitionNumber": [1, 2, 3, 4, 5, 6, 7, 8, 9, 10, 11, 12, 13, 14, 15, 16, 17, 18, 19, 20, 21, 22, 23, 24, 25, 26, 27, 28, 29, 30, 31, 32, 33, 34, 35, 36, 37, 38, 39, 40, 41, 42, 43, 44, 45, 46, 47, 48, 49, 50, 51, 52, 53, 54, 55, 56, 57, 58, 59, 60, 61, 62, 63, 64, 65, 66, 67, 68, 69, 70, 71, 72, 73, 74, 75, 76, 77, 78, 79, 80, 81, 82, 83, 84, 85, 86, 87, 88, 89, 90, 91, 92, 93, 94, 95, 96, 97, 98, 99, 100, 101, 102, 103, 104, 105, 106, 107, 108, 109, 110, 111, 112, 113, 114, 115, 116, 117, 118, 119, 120, 121, 122, 123, 124, 125, 126, 127, 128, 129, 130, 131, 132, 133, 134, 135, 136, 137, 138, 139, 140, 141, 142, 143, 144, 145, 146, 147, 148, 149, 150, 151, 152, 153, 154, 155, 156, 157, 158, 159, 160, 161, 162, 163, 164, 165, 166, 167, 168, 169, 170, 171, 172, 173, 174, 175, 176, 177, 178, 179, 180, 181, 182, 183, 184, 185, 186, 187, 188, 189, 190, 191, 192, 193, 194, 195, 196, 197, 198, 199, 200, 201, 202, 203, 204, 205, 206, 207, 208, 209, 210, 211, 212, 213, 214, 215, 216, 217, 218, 219, 220, 221, 222, 223, 224, 225, 226, 227, 228, 229, 230, 231, 232, 233, 234, 235, 236, 237, 238, 239, 240, 241, 242, 243, 244, 245, 246, 247, 248, 249, 250, 251, 252, 253, 254, 255, 256, 257, 258, 259, 260, 261, 262, 263, 264, 265, 266, 267, 268, 269, 270, 271, 272, 273, 274, 275, 276, 277, 278, 279, 280, 281, 282, 283, 284, 285, 286, 287, 288, 289, 290, 291, 292, 293, 294, 295, 296, 297, 298, 299, 300, 301, 302, 303, 304, 305, 306, 307, 308, 309, 310, 311, 312, 313, 314, 315, 316, 317, 318, 319, 320, 321, 322, 323, 324, 325, 326, 327, 328, 329, 330, 331, 332, 333, 334, 335, 336, 337, 338, 339, 340, 341, 342, 343, 344, 345, 346, 347, 348, 349, 350, 351, 352, 353, 354, 355, 356, 357, 358, 359, 360, 361, 362, 363, 364, 365, 366, 367, 368, 369, 370, 371, 372, 373, 374, 375, 376, 377, 378, 379, 380, 381, 382, 383, 384, 385, 386, 387, 388, 389, 390, 391, 392, 393, 394, 395, 396, 397, 398, 399, 400, 401, 402, 403, 404, 405, 406, 407, 408, 409, 410, 411, 412, 413, 414, 415, 416, 417, 418, 419, 420, 421, 422, 423, 424, 425, 426, 427, 428, 429, 430, 431, 432, 433, 434, 435, 436, 437, 438, 439, 440, 441, 442, 443, 444, 445, 446, 447, 448, 449, 450, 451, 452, 453, 454, 455, 456, 457, 458, 459, 460, 461, 462, 463, 464, 465, 466, 467, 468, 469, 470, 471, 472, 473, 474, 475, 476, 477, 478, 479, 480, 481, 482, 483, 484, 485, 486, 487, 488, 489, 490, 491, 492, 493, 494, 495, 496, 497, 498, 499, 500, 501, 502, 503, 504, 505, 506, 507, 508, 509, 510], "AcquisitionTime": ["144414.735000", "144415.345000", "144415.955000", "144416.565000", "144417.175000", "144417.785000", "144418.395000", "144419.005000", "144419.615000", "144420.225000", "144420.835000", "144421.445000", "144422.055000", "144422.665000", "144423.275000", "144423.885000", "144424.495000", "144425.105000", "144425.715000", "144426.325000", "144426.935000", "144427.545000", "144428.155000", "144428.765000", "144429.375000", "144429.985000", "144430.595000", "144431.205000", "144431.815000", "144432.425000", "144433.035000", "144433.645000", "144434.255000", "144434.865000", "144435.475000", "144436.085000", "144436.695000", "144437.305000", "144437.915000", "144438.525000", "144439.135000", "144439.745000", "144440.355000", "144440.965000", "144441.575000", "144442.185000", "144442.795000", "144443.405000", "144444.015000", "144444.625000", "144445.235000", "144445.845000", "144446.455000", "144447.065000", "144447.675000", "144448.285000", "144448.895000", "144449.505000", "144450.115000", "144450.725000", "144451.335000", "144451.945000", "144452.555000", "144453.165000", "144453.775000", "144454.385000", "144454.995000", "144455.605000", "144456.215000", "144456.825000", "144457.435000", "144458.045000", "144458.655000", "144459.265000", "144459.875000", "144500.485000", "144501.095000", "144501.705000", "144502.315000", "144502.925000", "144503.535000", "144504.145000", "144504.755000", "144505.365000", "144505.975000", "144506.585000", "144507.195000", "144507.805000", "144508.415000", "144509.025000", "144509.635000", "144510.245000", "144510.855000", "144511.465000", "144512.075000", "144512.685000", "144513.295000", "144513.905000", "144514.515000", "144515.125000", "144515.735000", "144516.345000", "144516.955000", "144517.565000", "144518.175000", "144518.785000", "144519.395000", "144520.005000", "144520.615000", "144521.225000", "144521.835000", "144522.445000", "144523.055000", "144523.665000", "144524.275000", "144524.885000", "144525.495000", "144526.105000", "144526.715000", "144527.325000", "144527.935000", "144528.545000", "144529.155000", "144529.765000", "144530.375000", "144530.985000", "144531.595000", "144532.205000", "144532.815000", "144533.425000", "144534.035000", "144534.645000", "144535.255000", "144535.865000", "144536.475000", "144537.085000", "144537.695000", "144538.305000", "144538.915000", "144539.525000", "144540.135000", "144540.745000", "144541.355000", "144541.965000", "144542.575000", "144543.185000", "144543.795000", "144544.405000", "144545.015000", "144545.625000", "144546.235000", "144546.845000", "144547.455000", "144548.065000", "144548.675000", "144549.285000", "144549.895000", "144550.505000", "144551.115000", "144551.725000", "144552.335000", "144552.945000", "144553.555000", "144554.165000", "144554.775000", "144555.385000", "144555.995000", "144556.605000", "144557.215000", "144557.825000", "144558.435000", "144559.045000", "144559.655000", "144600.265000", "144600.875000", "144601.485000", "144602.095000", "144602.705000", "144603.315000", "144603.925000", "144604.535000", "144605.145000", "144605.755000", "144606.365000", "144606.975000", "144607.585000", "144608.195000", "144608.805000", "144609.415000", "144610.025000", "144610.635000", "144611.245000", "144611.855000", "144612.465000", "144613.075000", "144613.685000", "144614.295000", "144614.905000", "144615.515000", "144616.125000", "144616.735000", "144617.345000", "144617.955000", "144618.565000", "144619.175000", "144619.785000", "144620.395000", "144621.005000", "144621.615000", "144622.225000", "144622.835000", "144623.445000", "144624.055000", "144624.665000", "144625.275000", "144625.885000", "144626.495000", "144627.105000", "144627.715000", "144628.325000", "144628.935000", "144629.545000", "144630.155000", "144630.765000", "144631.375000", "144631.985000", "144632.595000", "144633.205000", "144633.815000", "144634.425000", "144635.035000", "144635.645000", "144636.255000", "144636.865000", "144637.475000", "144638.085000", "144638.695000", "144639.305000", "144639.915000", "144640.525000", "144641.135000", "144641.745000", "144642.355000", "144642.965000", "144643.575000", "144644.185000", "144644.795000", "144645.405000", "144646.015000", "144646.625000", "144647.235000", "144647.845000", "144648.455000", "144649.065000", "144649.675000", "144650.285000", "144650.895000", "144651.505000", "144652.115000", "144652.725000", "144653.335000", "144653.945000", "144654.555000", "144655.165000", "144655.775000", "144656.385000", "144656.995000", "144657.605000", "144658.215000", "144658.825000", "144659.435000", "144700.045000", "144700.655000", "144701.265000", "144701.875000", "144702.485000", "144703.095000", "144703.705000", "144704.315000", "144704.925000", "144705.535000", "144706.145000", "144706.755000", "144707.365000", "144707.975000", "144708.585000", "144709.195000", "144709.805000", "144710.415000", "144711.025000", "144711.635000", "144712.245000", "144712.855000", "144713.465000", "144714.075000", "144714.685000", "144715.295000", "144715.905000", "144716.515000", "144717.125000", "144717.735000", "144718.345000", "144718.955000", "144719.565000", "144720.175000", "144720.785000", "144721.395000", "144722.005000", "144722.615000", "144723.225000", "144723.835000", "144724.445000", "144725.055000", "144725.665000", "144726.275000", "144726.885000", "144727.495000", "144728.105000", "144728.715000", "144729.325000", "144729.935000", "144730.545000", "144731.155000", "144731.765000", "144732.375000", "144732.985000", "144733.595000", "144734.205000", "144734.815000", "144735.425000", "144736.035000", "144736.645000", "144737.255000", "144737.865000", "144738.475000", "144739.085000", "144739.695000", "144740.305000", "144740.915000", "144741.525000", "144742.135000", "144742.745000", "144743.355000", "144743.965000", "144744.575000", "144745.185000", "144745.795000", "144746.405000", "144747.015000", "144747.625000", "144748.235000", "144748.845000", "144749.455000", "144750.065000", "144750.675000", "144751.285000", "144751.895000", "144752.505000", "144753.115000", "144753.725000", "144754.335000", "144754.945000", "144755.555000", "144756.165000", "144756.775000", "144757.385000", "144757.995000", "144758.605000", "144759.215000", "144759.825000", "144800.435000", "144801.045000", "144801.655000", "144802.265000", "144802.875000", "144803.485000", "144804.095000", "144804.705000", "144805.315000", "144805.925000", "144806.535000", "144807.145000", "144807.755000", "144808.365000", "144808.975000", "144809.585000", "144810.195000", "144810.805000", "144811.415000", "144812.025000", "144812.635000", "144813.245000", "144813.855000", "144814.465000", "144815.075000", "144815.685000", "144816.295000", "144816.905000", "144817.515000", "144818.125000", "144818.735000", "144819.345000", "144819.955000", "144820.565000", "144821.175000", "144821.785000", "144822.395000", "144823.005000", "144823.615000", "144824.225000", "144824.835000", "144825.445000", "144826.055000", "144826.665000", "144827.275000", "144827.885000", "144828.495000", "144829.105000", "144829.715000", "144830.325000", "144830.935000", "144831.545000", "144832.155000", "144832.765000", "144833.375000", "144833.985000", "144834.595000", "144835.205000", "144835.815000", "144836.425000", "144837.035000", "144837.645000", "144838.255000", "144838.865000", "144839.475000", "144840.085000", "144840.695000", "144841.305000", "144841.915000", "144842.525000", "144843.135000", "144843.745000", "144844.355000", "144844.965000", "144845.575000", "144846.185000", "144846.795000", "144847.405000", "144848.015000", "144848.625000", "144849.235000", "144849.845000", "144850.455000", "144851.065000", "144851.675000", "144852.285000", "144852.895000", "144853.505000", "144854.115000", "144854.725000", "144855.335000", "144855.945000", "144856.555000", "144857.165000", "144857.775000", "144858.385000", "144858.995000", "144859.605000", "144900.215000", "144900.825000", "144901.435000", "144902.045000", "144902.655000", "144903.265000", "144903.875000", "144904.485000", "144905.095000", "144905.705000", "144906.315000", "144906.925000", "144907.535000", "144908.145000", "144908.755000", "144909.365000", "144909.975000", "144910.585000", "144911.195000", "144911.805000", "144912.415000", "144913.025000", "144913.635000", "144914.245000", "144914.855000", "144915.465000", "144916.075000", "144916.685000", "144917.295000", "144917.905000", "144918.515000", "144919.125000", "144919.735000", "144920.345000", "144920.955000", "144921.565000", "144922.175000", "144922.785000", "144923.395000", "144924.005000", "144924.615000", "144925.225000"], "ContentTime": ["144438.474000", "144438.477000", "144438.479000", "144438.482000", "144438.484000", "144438.486000", "144438.489000", "144438.491000", "144438.494000", "144438.496000", "144438.498000", "144438.501000", "144438.503000", "144438.506000", "144438.508000", "144438.511000", "144438.513000", "144438.516000", "144438.518000", "144438.521000", "144438.523000", "144438.525000", "144438.528000", "144438.530000", "144438.532000", "144438.535000", "144438.537000", "144438.540000", "144438.542000", "144438.545000", "144438.547000", "144438.549000", "144438.552000", "144438.554000", "144438.565000", "144438.568000", "144438.570000", "144458.469000", "144458.472000", "144458.474000", "144458.476000", "144458.479000", "144458.481000", "144458.484000", "144458.486000", "144458.488000", "144458.491000", "144458.493000", "144458.495000", "144458.498000", "144458.506000", "144458.509000", "144458.511000", "144458.514000", "144458.516000", "144458.518000", "144458.521000", "144458.523000", "144458.525000", "144458.528000", "144458.530000", "144458.532000", "144458.535000", "144458.537000", "144458.539000", "144458.542000", "144458.544000", "144458.546000", "144458.549000", "144458.551000", "144518.469000", "144518.472000", "144518.474000", "144518.476000", "144518.479000", "144518.481000", "144518.483000", "144518.486000", "144518.488000", "144518.491000", "144518.493000", "144518.495000", "144518.498000", "144518.500000", "144518.502000", "144518.505000", "144518.510000", "144518.512000", "144518.515000", "144518.517000", "144518.520000", "144518.522000", "144518.524000", "144518.527000", "144518.529000", "144518.532000", "144518.534000", "144518.536000", "144518.539000", "144518.541000", "144518.544000", "144518.546000", "144518.548000", "144538.469000", "144538.472000", "144538.474000", "144538.476000", "144538.479000", "144538.481000", "144538.483000", "144538.486000", "144538.488000", "144538.491000", "144538.493000", "144538.495000", "144538.498000", "144538.500000", "144538.502000", "144538.505000", "144538.507000", "144538.509000", "144538.512000", "144538.514000", "144538.516000", "144538.519000", "144538.521000", "144538.523000", "144538.526000", "144538.528000", "144538.530000", "144538.533000", "144538.535000", "144538.537000", "144538.540000", "144538.542000", "144538.544000", "144558.469000", "144558.472000", "144558.474000", "144558.477000", "144558.479000", "144558.481000", "144558.484000", "144558.486000", "144558.488000", "144558.491000", "144558.493000", "144558.495000", "144558.498000", "144558.500000", "144558.502000", "144558.505000", "144558.507000", "144558.509000", "144558.512000", "144558.514000", "144558.516000", "144558.530000", "144558.533000", "144558.535000", "144558.538000", "144558.540000", "144558.542000", "144558.545000", "144558.547000", "144558.550000", "144558.552000", "144558.554000", "144558.557000", "144618.469000", "144618.472000", "144618.475000", "144618.477000", "144618.480000", "144618.482000", "144618.484000", "144618.487000", "144618.489000", "144618.492000", "144618.494000", "144618.496000", "144618.499000", "144618.501000", "144618.503000", "144618.506000", "144618.508000", "144618.511000", "144618.513000", "144618.515000", "144618.518000", "144618.520000", "144618.523000", "144618.525000", "144618.527000", "144618.530000", "144618.532000", "144618.535000", "144618.537000", "144618.539000", "144618.542000", "144618.544000", "144638.470000", "144638.473000", "144638.475000", "144638.478000", "144638.480000", "144638.483000", "144638.485000", "144638.487000", "144638.490000", "144638.492000", "144638.494000", "144638.497000", "144638.499000", "144638.501000", "144638.504000", "144638.514000", "144638.517000", "144638.519000", "144638.526000", "144638.528000", "144638.530000", "144638.533000", "144638.535000", "144638.538000", "144638.540000", "144638.542000", "144638.546000", "144638.548000", "144638.551000", "144638.553000", "144638.555000", "144638.558000", "144638.560000", "144658.469000", "144658.472000", "144658.474000", "144658.477000", "144658.479000", "144658.482000", "144658.484000", "144658.486000", "144658.489000", "144658.491000", "144658.494000", "144658.496000", "144658.499000", "144658.501000", "144658.503000", "144658.506000", "144658.508000", "144658.510000", "144658.513000", "144658.515000", "144658.517000", "144658.520000", "144658.522000", "144658.525000", "144658.527000", "144658.529000", "144658.532000", "144658.534000", "144658.536000", "144658.539000", "144658.541000", "144658.543000", "144658.546000", "144718.469000", "144718.472000", "144718.475000", "144718.477000", "144718.480000", "144718.482000", "144718.485000", "144718.488000", "144718.490000", "144718.493000", "144718.495000", "144718.497000", "144718.500000", "144718.502000", "144718.505000", "144718.507000", "144718.509000", "144718.512000", "144718.515000", "144718.517000", "144718.519000", "144718.522000", "144718.524000", "144718.527000", "144718.529000", "144718.531000", "144718.534000", "144718.536000", "144718.539000", "144718.541000", "144718.543000", "144718.546000", "144718.548000", "144738.469000", "144738.472000", "144738.474000", "144738.477000", "144738.480000", "144738.482000", "144738.484000", "144738.487000", "144738.489000", "144738.491000", "144738.494000", "144738.496000", "144738.498000", "144738.501000", "144738.503000", "144738.506000", "144738.508000", "144738.510000", "144738.513000", "144738.515000", "144738.517000", "144738.520000", "144738.522000", "144738.524000", "144738.527000", "144738.529000", "144738.531000", "144738.534000", "144738.536000", "144738.538000", "144738.541000", "144738.543000", "144758.469000", "144758.472000", "144758.474000", "144758.477000", "144758.479000", "144758.481000", "144758.484000", "144758.486000", "144758.488000", "144758.491000", "144758.493000", "144758.495000", "144758.498000", "144758.500000", "144758.502000", "144758.505000", "144758.507000", "144758.510000", "144758.512000", "144758.514000", "144758.517000", "144758.519000", "144758.522000", "144758.524000", "144758.526000", "144758.529000", "144758.531000", "144758.533000", "144758.536000", "144758.538000", "144758.540000", "144758.543000", "144758.545000", "144818.469000", "144818.472000", "144818.474000", "144818.477000", "144818.479000", "144818.481000", "144818.484000", "144818.486000", "144818.489000", "144818.491000", "144818.493000", "144818.496000", "144818.498000", "144818.501000", "144818.503000", "144818.505000", "144818.508000", "144818.510000", "144818.512000", "144818.515000", "144818.517000", "144818.519000", "144818.522000", "144818.524000", "144818.526000", "144818.529000", "144818.531000", "144818.533000", "144818.536000", "144818.538000", "144818.541000", "144818.543000", "144818.545000", "144838.469000", "144838.472000", "144838.474000", "144838.477000", "144838.479000", "144838.482000", "144838.484000", "144838.487000", "144838.489000", "144838.491000", "144838.494000", "144838.496000", "144838.499000", "144838.501000", "144838.504000", "144838.506000", "144838.508000", "144838.511000", "144838.513000", "144838.515000", "144838.518000", "144838.520000", "144838.522000", "144838.525000", "144838.527000", "144838.529000", "144838.532000", "144838.534000", "144838.536000", "144838.539000", "144838.541000", "144838.543000", "144838.546000", "144858.470000", "144858.473000", "144858.475000", "144858.478000", "144858.480000", "144858.483000", "144858.485000", "144858.488000", "144858.490000", "144858.492000", "144858.495000", "144858.497000", "144858.500000", "144858.502000", "144858.504000", "144858.507000", "144858.509000", "144858.512000", "144858.514000", "144858.516000", "144858.519000", "144858.521000", "144858.524000", "144858.526000", "144858.528000", "144858.531000", "144858.533000", "144858.536000", "144858.538000", "144858.540000", "144858.543000", "144858.545000", "144858.548000", "144918.470000", "144918.472000", "144918.475000", "144918.478000", "144918.481000", "144918.483000", "144918.486000", "144918.488000", "144918.491000", "144918.493000", "144918.496000", "144918.498000", "144918.500000", "144918.503000", "144918.506000", "144918.508000", "144918.510000", "144918.513000", "144918.515000", "144918.518000", "144918.521000", "144918.523000", "144918.526000", "144918.529000", "144918.531000", "144918.533000", "144918.536000", "144918.576000", "144918.578000", "144918.581000", "144918.583000", "144918.586000", "144926.421000", "144926.424000", "144926.426000", "144926.428000", "144926.431000", "144926.433000", "144926.435000", "144926.438000", "144926.440000", "144926.443000", "144926.445000", "144926.447000", "144926.450000", "144926.452000"], "InstanceCreationTime": ["144438.474000", "144438.477000", "144438.479000", "144438.482000", "144438.484000", "144438.486000", "144438.489000", "144438.491000", "144438.494000", "144438.496000", "144438.498000", "144438.501000", "144438.503000", "144438.506000", "144438.508000", "144438.511000", "144438.513000", "144438.516000", "144438.518000", "144438.521000", "144438.523000", "144438.525000", "144438.528000", "144438.530000", "144438.532000", "144438.535000", "144438.537000", "144438.540000", "144438.542000", "144438.545000", "144438.547000", "144438.549000", "144438.552000", "144438.554000", "144438.565000", "144438.568000", "144438.570000", "144458.469000", "144458.472000", "144458.474000", "144458.476000", "144458.479000", "144458.481000", "144458.484000", "144458.486000", "144458.488000", "144458.491000", "144458.493000", "144458.495000", "144458.498000", "144458.506000", "144458.509000", "144458.511000", "144458.514000", "144458.516000", "144458.518000", "144458.521000", "144458.523000", "144458.525000", "144458.528000", "144458.530000", "144458.532000", "144458.535000", "144458.537000", "144458.539000", "144458.542000", "144458.544000", "144458.546000", "144458.549000", "144458.551000", "144518.469000", "144518.472000", "144518.474000", "144518.476000", "144518.479000", "144518.481000", "144518.483000", "144518.486000", "144518.488000", "144518.491000", "144518.493000", "144518.495000", "144518.498000", "144518.500000", "144518.502000", "144518.505000", "144518.510000", "144518.512000", "144518.515000", "144518.517000", "144518.520000", "144518.522000", "144518.524000", "144518.527000", "144518.529000", "144518.532000", "144518.534000", "144518.536000", "144518.539000", "144518.541000", "144518.544000", "144518.546000", "144518.548000", "144538.469000", "144538.472000", "144538.474000", "144538.476000", "144538.479000", "144538.481000", "144538.483000", "144538.486000", "144538.488000", "144538.491000", "144538.493000", "144538.495000", "144538.498000", "144538.500000", "144538.502000", "144538.505000", "144538.507000", "144538.509000", "144538.512000", "144538.514000", "144538.516000", "144538.519000", "144538.521000", "144538.523000", "144538.526000", "144538.528000", "144538.530000", "144538.533000", "144538.535000", "144538.537000", "144538.540000", "144538.542000", "144538.544000", "144558.469000", "144558.472000", "144558.474000", "144558.477000", "144558.479000", "144558.481000", "144558.484000", "144558.486000", "144558.488000", "144558.491000", "144558.493000", "144558.495000", "144558.498000", "144558.500000", "144558.502000", "144558.505000", "144558.507000", "144558.509000", "144558.512000", "144558.514000", "144558.516000", "144558.530000", "144558.533000", "144558.535000", "144558.538000", "144558.540000", "144558.542000", "144558.545000", "144558.547000", "144558.550000", "144558.552000", "144558.554000", "144558.557000", "144618.469000", "144618.472000", "144618.475000", "144618.477000", "144618.480000", "144618.482000", "144618.484000", "144618.487000", "144618.489000", "144618.492000", "144618.494000", "144618.496000", "144618.499000", "144618.501000", "144618.503000", "144618.506000", "144618.508000", "144618.511000", "144618.513000", "144618.515000", "144618.518000", "144618.520000", "144618.523000", "144618.525000", "144618.527000", "144618.530000", "144618.532000", "144618.535000", "144618.537000", "144618.539000", "144618.542000", "144618.544000", "144638.470000", "144638.473000", "144638.475000", "144638.478000", "144638.480000", "144638.483000", "144638.485000", "144638.487000", "144638.490000", "144638.492000", "144638.494000", "144638.497000", "144638.499000", "144638.501000", "144638.504000", "144638.514000", "144638.517000", "144638.519000", "144638.526000", "144638.528000", "144638.530000", "144638.533000", "144638.535000", "144638.538000", "144638.540000", "144638.542000", "144638.546000", "144638.548000", "144638.551000", "144638.553000", "144638.555000", "144638.558000", "144638.560000", "144658.469000", "144658.472000", "144658.474000", "144658.477000", "144658.479000", "144658.482000", "144658.484000", "144658.486000", "144658.489000", "144658.491000", "144658.494000", "144658.496000", "144658.499000", "144658.501000", "144658.503000", "144658.506000", "144658.508000", "144658.510000", "144658.513000", "144658.515000", "144658.517000", "144658.520000", "144658.522000", "144658.525000", "144658.527000", "144658.529000", "144658.532000", "144658.534000", "144658.536000", "144658.539000", "144658.541000", "144658.543000", "144658.546000", "144718.469000", "144718.472000", "144718.475000", "144718.477000", "144718.480000", "144718.482000", "144718.485000", "144718.488000", "144718.490000", "144718.493000", "144718.495000", "144718.497000", "144718.500000", "144718.502000", "144718.505000", "144718.507000", "144718.509000", "144718.512000", "144718.515000", "144718.517000", "144718.519000", "144718.522000", "144718.524000", "144718.527000", "144718.529000", "144718.531000", "144718.534000", "144718.536000", "144718.539000", "144718.541000", "144718.543000", "144718.546000", "144718.548000", "144738.469000", "144738.472000", "144738.474000", "144738.477000", "144738.480000", "144738.482000", "144738.484000", "144738.487000", "144738.489000", "144738.491000", "144738.494000", "144738.496000", "144738.498000", "144738.501000", "144738.503000", "144738.506000", "144738.508000", "144738.510000", "144738.513000", "144738.515000", "144738.517000", "144738.520000", "144738.522000", "144738.524000", "144738.527000", "144738.529000", "144738.531000", "144738.534000", "144738.536000", "144738.538000", "14473