{
    "AcquisitionMatrixPE": 64,
    "AcquisitionNumber": 1,
    "AcquisitionTime": "11:23:35.742500",
    "BandwidthPerPixelPhaseEncode": 28.935,
    "BaseResolution": 64,
    "BodyPartExamined": "BRAIN",
    "CoilCombinationMethod": "Sum of Squares",
    "ConsistencyInfo": "N4_VE11E_LATEST_20181129",
    "ConversionSoftware": "dcm2niix",
    "ConversionSoftwareVersion": "v1.0.20211006",
    "DerivedVendorReportedEchoSpacing": 0.000540003,
    "DeviceSerialNumber": "166182",
    "DwellTime": 3.4e-06,
    "EchoTime": 0.032,
    "EchoTrainLength": 64,
    "EffectiveEchoSpacing": 0.000540003,
    "FlipAngle": 40,
    "ImageOrientationPatientDICOM": [
        0.999166,
        0.0365241,
        -0.0182778,
        -0.0368123,
        0.999199,
        -0.0156924
    ],
    "ImageOrientationText": "Tra>Sag(-1.0)>Cor(-0.9)",
    "ImageType": [
        "ORIGINAL",
        "PRIMARY",
        "M",
        "ND",
        "NORM",
        "MOSAIC"
    ],
    "ImagingFrequency": 123.258,
    "InPlanePhaseEncodingDirectionDICOM": "COL",
    "InstitutionAddress": "PEARSE STREET .,City,District,IE,D2",
    "InstitutionName": "TCIN",
    "InstitutionalDepartmentName": "MRI",
    "MRAcquisitionType": "2D",
    "MagneticFieldStrength": 3,
    "Manufacturer": "Siemens",
    "ManufacturersModelName": "Prisma",
    "Modality": "MR",
    "MultibandAccelerationFactor": 4,
    "PartialFourier": 1,
    "PatientPosition": "HFS",
    "PercentPhaseFOV": 100,
    "PercentSampling": 100,
    "PhaseEncodingDirection": "j-",
    "PhaseEncodingSteps": 64,
    "PhaseResolution": 1,
    "PixelBandwidth": 2300,
    "ProcedureStepDescription": "Rhodri^Head BOLD",
    "ProtocolName": "cmrr_mbep2d_bold_Pictures_AP",
    "PulseSequenceDetails": "%SiemensSeq%\\ep2d_bold",
    "ReceiveCoilActiveElements": "HC2,4,6,7;NC2;SC",
    "ReceiveCoilName": "HeadNeck_64",
    "ReconMatrixPE": 64,
    "RefLinesPE": 12,
    "RepetitionTime": 0.61,
    "SAR": 0.301101,
    "ScanOptions": "FS",
    "ScanningSequence": "EP",
    "SequenceName": "*epfid2d1_64",
    "SequenceVariant": "SK",
    "SeriesDescription": "cmrr_mbep2d_bold_Pictures_AP",
    "SeriesNumber": 10,
    "ShimSetting": [
        -3574,
        -7460,
        3866,
        1083,
        53,
        301,
        -10,
        47
    ],
    "SliceThickness": 3,
    "SliceTiming": [
        0.2625,
        0,
        0.3275,
        0.065,
        0.3925,
        0.1325,
        0.46,
        0.1975,
        0.525,
        0.2625,
        0,
        0.3275,
        0.065,
        0.3925,
        0.1325,
        0.46,
        0.1975,
        0.525,
        0.2625,
        0,
        0.3275,
        0.065,
        0.3925,
        0.1325,
        0.46,
        0.1975,
        0.525,
        0.2625,
        0,
        0.3275,
        0.065,
        0.3925,
        0.1325,
        0.46,
        0.1975,
        0.525
    ],
    "SoftwareVersions": "syngo MR E11",
    "SpacingBetweenSlices": 3.3,
    "StationName": "AWP166182",
    "TaskName": "pictures",
    "TotalReadoutTime": 0.0340202,
    "TxRefAmp": 231.201,
    "dcmmeta_affine": [
        [
            -2.9974968433380127,
            -0.11043702811002731,
            -0.05837712064385414,
            96.14945220947266
        ],
        [
            -0.10957217961549759,
            2.9975969791412354,
            -0.053962111473083496,
            -101.39275360107422
        ],
        [
            -0.05483347922563553,
            0.04707719758152962,
            3.2990424633026123,
            -91.6913070678711
        ],
        [
            0.0,
            0.0,
            0.0,
            1.0
        ]
    ],
    "dcmmeta_reorient_transform": [
        [
            0.0,
            -1.0,
            0.0,
            63.0
        ],
        [
            1.0,
            0.0,
            0.0,
            0.0
        ],
        [
            0.0,
            0.0,
            1.0,
            0.0
        ],
        [
            0.0,
            0.0,
            0.0,
            1.0
        ]
    ],
    "dcmmeta_shape": [
        64,
        64,
        36,
        500
    ],
    "dcmmeta_slice_dim": 2,
    "dcmmeta_version": 0.6,
    "global": {
        "const": {
            "AcquisitionMatrix": [
                64,
                0,
                0,
                64
            ],
            "AngioFlag": "N",
            "BitsAllocated": 16,
            "BitsStored": 12,
            "BodyPartExamined": "BRAIN",
            "Columns": 384,
            "EchoNumbers": 1,
            "EchoTime": 32.0,
            "EchoTrainLength": 64,
            "FlipAngle": 40.0,
            "HighBit": 11,
            "ImageOrientationPatient": [
                0.99916560890132,
                0.03652406109294,
                -0.0182778267346,
                -0.0368123433987,
                0.99919897917847,
                -0.015692398867
            ],
            "ImagePositionPatient": [
                -551.12148807634,
                -584.60291181675,
                -72.419737577905
            ],
            "ImageType": [
                "ORIGINAL",
                "PRIMARY",
                "M",
                "ND",
                "NORM",
                "MOSAIC"
            ],
            "ImagedNucleus": "1H",
            "ImagingFrequency": 123.257563,
            "InPlanePhaseEncodingDirection": "COL",
            "MRAcquisitionType": "2D",
            "MagneticFieldStrength": 3.0,
            "Manufacturer": "SIEMENS",
            "ManufacturerModelName": "Prisma",
            "Modality": "MR",
            "NumberOfAverages": 1.0,
            "NumberOfPhaseEncodingSteps": 64,
            "PercentPhaseFieldOfView": 100.0,
            "PercentSampling": 100.0,
            "PerformedProcedureStepStartTime": "102503.709000",
            "PhotometricInterpretation": "MONOCHROME2",
            "PixelBandwidth": 2300.0,
            "PixelRepresentation": 0,
            "PixelSpacing": [
                3.0,
                3.0
            ],
            "ProtocolName": "cmrr_mbep2d_bold_Pictures_AP",
            "RepetitionTime": 610.0,
            "Rows": 384,
            "SAR": 0.30110130542146,
            "SamplesPerPixel": 1,
            "ScanOptions": "FS",
            "ScanningSequence": "EP",
            "SequenceName": "*epfid2d1_64",
            "SequenceVariant": "SK",
            "SeriesDescription": "cmrr_mbep2d_bold_Pictures_AP",
            "SeriesNumber": 10,
            "SeriesTime": "112403.629000",
            "SliceLocation": -91.707597002139,
            "SliceThickness": 3.0,
            "SmallestImagePixelValue": 0,
            "SoftwareVersions": "syngo MR E11",
            "SpacingBetweenSlices": 3.3000000860217,
            "SpecificCharacterSet": "ISO_IR 100",
            "StudyID": "1",
            "StudyTime": "102503.598000",
            "TransmitCoilName": "Body",
            "VariableFlipAngleFlag": "N",
            "WindowCenterWidthExplanation": "Algo1"
        },
        "slices": {}
    },
    "time": {
        "samples": {
            "AcquisitionNumber": [
                1,
                2,
                3,
                4,
                5,
                6,
                7,
                8,
                9,
                10,
                11,
                12,
                13,
                14,
                15,
                16,
                17,
                18,
                19,
                20,
                21,
                22,
                23,
                24,
                25,
                26,
                27,
                28,
                29,
                30,
                31,
                32,
                33,
                34,
                35,
                36,
                37,
                38,
                39,
                40,
                41,
                42,
                43,
                44,
                45,
                46,
                47,
                48,
                49,
                50,
                51,
                52,
                53,
                54,
                55,
                56,
                57,
                58,
                59,
                60,
                61,
                62,
                63,
                64,
                65,
                66,
                67,
                68,
                69,
                70,
                71,
                72,
                73,
                74,
                75,
                76,
                77,
                78,
                79,
                80,
                81,
                82,
                83,
                84,
                85,
                86,
                87,
                88,
                89,
                90,
                91,
                92,
                93,
                94,
                95,
                96,
                97,
                98,
                99,
                100,
                101,
                102,
                103,
                104,
                105,
                106,
                107,
                108,
                109,
                110,
                111,
                112,
                113,
                114,
                115,
                116,
                117,
                118,
                119,
                120,
                121,
                122,
                123,
                124,
                125,
                126,
                127,
                128,
                129,
                130,
                131,
                132,
                133,
                134,
                135,
                136,
                137,
                138,
                139,
                140,
                141,
                142,
                143,
                144,
                145,
                146,
                147,
                148,
                149,
                150,
                151,
                152,
                153,
                154,
                155,
                156,
                157,
                158,
                159,
                160,
                161,
                162,
                163,
                164,
                165,
                166,
                167,
                168,
                169,
                170,
                171,
                172,
                173,
                174,
                175,
                176,
                177,
                178,
                179,
                180,
                181,
                182,
                183,
                184,
                185,
                186,
                187,
                188,
                189,
                190,
                191,
                192,
                193,
                194,
                195,
                196,
                197,
                198,
                199,
                200,
                201,
                202,
                203,
                204,
                205,
                206,
                207,
                208,
                209,
                210,
                211,
                212,
                213,
                214,
                215,
                216,
                217,
                218,
                219,
                220,
                221,
                222,
                223,
                224,
                225,
                226,
                227,
                228,
                229,
                230,
                231,
                232,
                233,
                234,
                235,
                236,
                237,
                238,
                239,
                240,
                241,
                242,
                243,
                244,
                245,
                246,
                247,
                248,
                249,
                250,
                251,
                252,
                253,
                254,
                255,
                256,
                257,
                258,
                259,
                260,
                261,
                262,
                263,
                264,
                265,
                266,
                267,
                268,
                269,
                270,
                271,
                272,
                273,
                274,
                275,
                276,
                277,
                278,
                279,
                280,
                281,
                282,
                283,
                284,
                285,
                286,
                287,
                288,
                289,
                290,
                291,
                292,
                293,
                294,
                295,
                296,
                297,
                298,
                299,
                300,
                301,
                302,
                303,
                304,
                305,
                306,
                307,
                308,
                309,
                310,
                311,
                312,
                313,
                314,
                315,
                316,
                317,
                318,
                319,
                320,
                321,
                322,
                323,
                324,
                325,
                326,
                327,
                328,
                329,
                330,
                331,
                332,
                333,
                334,
                335,
                336,
                337,
                338,
                339,
                340,
                341,
                342,
                343,
                344,
                345,
                346,
                347,
                348,
                349,
                350,
                351,
                352,
                353,
                354,
                355,
                356,
                357,
                358,
                359,
                360,
                361,
                362,
                363,
                364,
                365,
                366,
                367,
                368,
                369,
                370,
                371,
                372,
                373,
                374,
                375,
                376,
                377,
                378,
                379,
                380,
                381,
                382,
                383,
                384,
                385,
                386,
                387,
                388,
                389,
                390,
                391,
                392,
                393,
                394,
                395,
                396,
                397,
                398,
                399,
                400,
                401,
                402,
                403,
                404,
                405,
                406,
                407,
                408,
                409,
                410,
                411,
                412,
                413,
                414,
                415,
                416,
                417,
                418,
                419,
                420,
                421,
                422,
                423,
                424,
                425,
                426,
                427,
                428,
                429,
                430,
                431,
                432,
                433,
                434,
                435,
                436,
                437,
                438,
                439,
                440,
                441,
                442,
                443,
                444,
                445,
                446,
                447,
                448,
                449,
                450,
                451,
                452,
                453,
                454,
                455,
                456,
                457,
                458,
                459,
                460,
                461,
                462,
                463,
                464,
                465,
                466,
                467,
                468,
                469,
                470,
                471,
                472,
                473,
                474,
                475,
                476,
                477,
                478,
                479,
                480,
                481,
                482,
                483,
                484,
                485,
                486,
                487,
                488,
                489,
                490,
                491,
                492,
                493,
                494,
                495,
                496,
                497,
                498,
                499,
                500
            ],
            "AcquisitionTime": [
                "112335.742500",
                "112336.352500",
                "112336.962500",
                "112337.572500",
                "112338.182500",
                "112338.792500",
                "112339.402500",
                "112340.012500",
                "112340.622500",
                "112341.232500",
                "112341.842500",
                "112342.452500",
                "112343.062500",
                "112343.672500",
                "112344.282500",
                "112344.892500",
                "112345.502500",
                "112346.112500",
                "112346.722500",
                "112347.332500",
                "112347.942500",
                "112348.552500",
                "112349.162500",
                "112349.772500",
                "112350.382500",
                "112350.992500",
                "112351.602500",
                "112352.212500",
                "112352.822500",
                "112353.432500",
                "112354.042500",
                "112354.652500",
                "112355.262500",
                "112355.872500",
                "112356.482500",
                "112357.092500",
                "112357.702500",
                "112358.312500",
                "112358.922500",
                "112359.532500",
                "112400.142500",
                "112400.752500",
                "112401.362500",
                "112401.972500",
                "112402.582500",
                "112403.192500",
                "112403.802500",
                "112404.412500",
                "112405.022500",
                "112405.632500",
                "112406.242500",
                "112406.852500",
                "112407.462500",
                "112408.072500",
                "112408.682500",
                "112409.292500",
                "112409.902500",
                "112410.512500",
                "112411.122500",
                "112411.732500",
                "112412.342500",
                "112412.952500",
                "112413.562500",
                "112414.172500",
                "112414.782500",
                "112415.392500",
                "112416.002500",
                "112416.612500",
                "112417.222500",
                "112417.832500",
                "112418.442500",
                "112419.052500",
                "112419.662500",
                "112420.272500",
                "112420.882500",
                "112421.492500",
                "112422.102500",
                "112422.712500",
                "112423.322500",
                "112423.932500",
                "112424.542500",
                "112425.152500",
                "112425.762500",
                "112426.372500",
                "112426.982500",
                "112427.592500",
                "112428.202500",
                "112428.812500",
                "112429.422500",
                "112430.032500",
                "112430.642500",
                "112431.252500",
                "112431.862500",
                "112432.472500",
                "112433.082500",
                "112433.692500",
                "112434.302500",
                "112434.912500",
                "112435.522500",
                "112436.132500",
                "112436.742500",
                "112437.352500",
                "112437.962500",
                "112438.572500",
                "112439.182500",
                "112439.792500",
                "112440.402500",
                "112441.012500",
                "112441.622500",
                "112442.232500",
                "112442.842500",
                "112443.452500",
                "112444.062500",
                "112444.672500",
                "112445.282500",
                "112445.892500",
                "112446.502500",
                "112447.112500",
                "112447.722500",
                "112448.332500",
                "112448.942500",
                "112449.552500",
                "112450.162500",
                "112450.772500",
                "112451.382500",
                "112451.992500",
                "112452.602500",
                "112453.212500",
                "112453.822500",
                "112454.432500",
                "112455.042500",
                "112455.652500",
                "112456.262500",
                "112456.872500",
                "112457.482500",
                "112458.092500",
                "112458.702500",
                "112459.312500",
                "112459.922500",
                "112500.532500",
                "112501.142500",
                "112501.752500",
                "112502.362500",
                "112502.972500",
                "112503.582500",
                "112504.192500",
                "112504.802500",
                "112505.412500",
                "112506.022500",
                "112506.632500",
                "112507.242500",
                "112507.852500",
                "112508.462500",
                "112509.072500",
                "112509.682500",
                "112510.292500",
                "112510.902500",
                "112511.512500",
                "112512.122500",
                "112512.732500",
                "112513.342500",
                "112513.952500",
                "112514.562500",
                "112515.172500",
                "112515.782500",
                "112516.392500",
                "112517.002500",
                "112517.612500",
                "112518.222500",
                "112518.832500",
                "112519.442500",
                "112520.052500",
                "112520.662500",
                "112521.272500",
                "112521.882500",
                "112522.492500",
                "112523.102500",
                "112523.712500",
                "112524.322500",
                "112524.932500",
                "112525.542500",
                "112526.152500",
                "112526.762500",
                "112527.372500",
                "112527.982500",
                "112528.592500",
                "112529.202500",
                "112529.812500",
                "112530.422500",
                "112531.032500",
                "112531.642500",
                "112532.252500",
                "112532.862500",
                "112533.472500",
                "112534.082500",
                "112534.692500",
                "112535.302500",
                "112535.912500",
                "112536.522500",
                "112537.132500",
                "112537.742500",
                "112538.352500",
                "112538.962500",
                "112539.572500",
                "112540.182500",
                "112540.792500",
                "112541.402500",
                "112542.012500",
                "112542.622500",
                "112543.232500",
                "112543.842500",
                "112544.452500",
                "112545.062500",
                "112545.672500",
                "112546.282500",
                "112546.892500",
                "112547.502500",
                "112548.112500",
                "112548.722500",
                "112549.332500",
                "112549.942500",
                "112550.552500",
                "112551.162500",
                "112551.772500",
                "112552.382500",
                "112552.992500",
                "112553.602500",
                "112554.212500",
                "112554.822500",
                "112555.432500",
                "112556.042500",
                "112556.652500",
                "112557.262500",
                "112557.872500",
                "112558.482500",
                "112559.092500",
                "112559.702500",
                "112600.312500",
                "112600.922500",
                "112601.532500",
                "112602.142500",
                "112602.752500",
                "112603.362500",
                "112603.972500",
                "112604.582500",
                "112605.192500",
                "112605.802500",
                "112606.412500",
                "112607.022500",
                "112607.632500",
                "112608.242500",
                "112608.852500",
                "112609.462500",
                "112610.072500",
                "112610.682500",
                "112611.292500",
                "112611.902500",
                "112612.512500",
                "112613.122500",
                "112613.732500",
                "112614.342500",
                "112614.952500",
                "112615.562500",
                "112616.172500",
                "112616.782500",
                "112617.392500",
                "112618.002500",
                "112618.612500",
                "112619.222500",
                "112619.832500",
                "112620.442500",
                "112621.052500",
                "112621.662500",
                "112622.272500",
                "112622.882500",
                "112623.492500",
                "112624.102500",
                "112624.712500",
                "112625.322500",
                "112625.932500",
                "112626.542500",
                "112627.152500",
                "112627.762500",
                "112628.372500",
                "112628.982500",
                "112629.592500",
                "112630.202500",
                "112630.812500",
                "112631.422500",
                "112632.032500",
                "112632.642500",
                "112633.252500",
                "112633.862500",
                "112634.472500",
                "112635.082500",
                "112635.692500",
                "112636.302500",
                "112636.912500",
                "112637.522500",
                "112638.132500",
                "112638.742500",
                "112639.352500",
                "112639.962500",
                "112640.572500",
                "112641.182500",
                "112641.792500",
                "112642.402500",
                "112643.012500",
                "112643.622500",
                "112644.232500",
                "112644.842500",
                "112645.452500",
                "112646.062500",
                "112646.672500",
                "112647.282500",
                "112647.892500",
                "112648.502500",
                "112649.112500",
                "112649.722500",
                "112650.332500",
                "112650.942500",
                "112651.552500",
                "112652.162500",
                "112652.772500",
                "112653.382500",
                "112653.992500",
                "112654.602500",
                "112655.212500",
                "112655.822500",
                "112656.432500",
                "112657.042500",
                "112657.652500",
                "112658.262500",
                "112658.872500",
                "112659.482500",
                "112700.092500",
                "112700.702500",
                "112701.312500",
                "112701.922500",
                "112702.532500",
                "112703.142500",
                "112703.752500",
                "112704.362500",
                "112704.972500",
                "112705.582500",
                "112706.192500",
                "112706.802500",
                "112707.412500",
                "112708.022500",
                "112708.632500",
                "112709.242500",
                "112709.852500",
                "112710.462500",
                "112711.072500",
                "112711.682500",
                "112712.292500",
                "112712.902500",
                "112713.512500",
                "112714.122500",
                "112714.732500",
                "112715.342500",
                "112715.952500",
                "112716.562500",
                "112717.172500",
                "112717.782500",
                "112718.392500",
                "112719.002500",
                "112719.612500",
                "112720.222500",
                "112720.832500",
                "112721.442500",
                "112722.052500",
                "112722.662500",
                "112723.272500",
                "112723.882500",
                "112724.492500",
                "112725.102500",
