{"AcquisitionMatrixPE": 64, "AcquisitionNumber": 1, "AcquisitionTime": "15:15:51.712500", "BandwidthPerPixelPhaseEncode": 28.935, "BaseResolution": 64, "BodyPartExamined": "BRAIN", "CoilCombinationMethod": "Sum of Squares", "ConsistencyInfo": "N4_VE11E_LATEST_20181129", "ConversionSoftware": "dcm2niix", "ConversionSoftwareVersion": "v1.0.20230411", "DerivedVendorReportedEchoSpacing": 0.000540003, "DeviceSerialNumber": "166182", "DwellTime": 3.4e-06, "EchoTime": 0.032, "EchoTrainLength": 64, "EffectiveEchoSpacing": 0.000540003, "FlipAngle": 40, "HeudiconvVersion": "0.13.1", "ImageOrientationPatientDICOM": [0.999078, -0.0391319, -0.0176347, 0.03873, 0.998994, -0.0225827], "ImageOrientationText": "Tra>Cor(-1.3)>Sag(-1.1)", "ImageType": ["ORIGINAL", "PRIMARY", "M", "ND", "NORM", "MOSAIC"], "ImagingFrequency": 123.255896, "InPlanePhaseEncodingDirectionDICOM": "COL", "InstitutionAddress": "PEARSE STREET .,City,District,IE,D2", "InstitutionName": "TCIN", "InstitutionalDepartmentName": "MRI", "MRAcquisitionType": "2D", "MagneticFieldStrength": 3, "Manufacturer": "Siemens", "ManufacturersModelName": "Prisma", "Modality": "MR", "MultibandAccelerationFactor": 4, "NonlinearGradientCorrection": false, "PartialFourier": 1, "PatientPosition": "HFS", "PercentPhaseFOV": 100, "PercentSampling": 100, "PhaseEncodingDirection": "j-", "PhaseEncodingSteps": 64, "PhaseResolution": 1, "PixelBandwidth": 2300, "ProcedureStepDescription": "Rhodri^Head BOLD", "ProtocolName": "cmrr_mbep2d_Pictures_AP_RDS", "PulseSequenceDetails": "%SiemensSeq%\\ep2d_bold", "ReceiveCoilActiveElements": "HC2,4,6,7;SC", "ReceiveCoilName": "SpecialPurpose_4", "ReconMatrixPE": 64, "RefLinesPE": 12, "RepetitionTime": 0.61, "SAR": 0.344991, "ScanOptions": "FS", "ScanningSequence": "EP", "SequenceName": "*epfid2d1_64", "SequenceVariant": "SK", "SeriesDescription": "cmrr_mbep2d_Pictures_AP_RDS", "SeriesNumber": 8, "ShimSetting": [-3603, -7444, 3958, 1069, 80, 337, -131, 241], "SliceThickness": 3, "SliceTiming": [0.2625, 0, 0.3275, 0.065, 0.3925, 0.1325, 0.46, 0.1975, 0.525, 0.2625, 0, 0.3275, 0.065, 0.3925, 0.1325, 0.46, 0.1975, 0.525, 0.2625, 0, 0.3275, 0.065, 0.3925, 0.1325, 0.46, 0.1975, 0.525, 0.2625, 0, 0.3275, 0.065, 0.3925, 0.1325, 0.46, 0.1975, 0.525], "SoftwareVersions": "syngo MR E11", "SpacingBetweenSlices": 3.3, "StationName": "AWP166182", "TaskName": "pictures", "TotalReadoutTime": 0.0340202, "TxRefAmp": 246.22, "dcmmeta_affine": [[-2.9972352981567383, 0.11619003862142563, -0.06105231121182442, 92.21076965332031], [0.11739572137594223, 2.996983528137207, -0.072200246155262, -108.91432189941406], [-0.05290418490767479, 0.06774800270795822, 3.29864501953125, -85.65180969238281], [0.0, 0.0, 0.0, 1.0]], "dcmmeta_reorient_transform": [[0.0, -1.0, 0.0, 63.0], [1.0, 0.0, 0.0, 0.0], [0.0, 0.0, 1.0, 0.0], [0.0, 0.0, 0.0, 1.0]], "dcmmeta_shape": [64, 64, 36, 218], "dcmmeta_slice_dim": 2, "dcmmeta_version": 0.6, "global": {"const": {"AcquisitionMatrix": [64, 0, 0, 64], "AngioFlag": "N", "BitsAllocated": 16, "BitsStored": 12, "BodyPartExamined": "BRAIN", "Columns": 384, "EchoNumbers": 1, "EchoTime": 32.0, "EchoTrainLength": 64, "FlipAngle": 40.0, "HighBit": 11, "ImageOrientationPatient": [0.99907843048403, -0.039131906173, -0.0176347288282, 0.03873001217578, 0.99899449911159, -0.0225826681693], "ImagePositionPatient": [-597.67879602505, -540.62967955954, -62.079331941763], "ImageType": ["ORIGINAL", "PRIMARY", "M", "ND", "NORM", "MOSAIC"], "ImagedNucleus": "1H", "ImagingFrequency": 123.255896, "InPlanePhaseEncodingDirection": "COL", "MRAcquisitionType": "2D", "MagneticFieldStrength": 3.0, "Manufacturer": "SIEMENS", "ManufacturerModelName": "Prisma", "Modality": "MR", "NumberOfAverages": 1.0, "NumberOfPhaseEncodingSteps": 64, "PercentPhaseFieldOfView": 100.0, "PercentSampling": 100.0, "PerformedProcedureStepStartTime": "150105.586000", "PhotometricInterpretation": "MONOCHROME2", "PixelBandwidth": 2300.0, "PixelRepresentation": 0, "PixelSpacing": [3.0, 3.0], "ProtocolName": "cmrr_mbep2d_Pictures_AP_RDS", "RepetitionTime": 610.0, "Rows": 384, "SAR": 0.34499131497526, "SamplesPerPixel": 1, "ScanOptions": "FS", "ScanningSequence": "EP", "SequenceName": "*epfid2d1_64", "SequenceVariant": "SK", "SeriesDescription": "cmrr_mbep2d_Pictures_AP_RDS", "SeriesNumber": 8, "SeriesTime": "151611.042000", "SliceLocation": -84.939683350152, "SliceThickness": 3.0, "SmallestImagePixelValue": 0, "SoftwareVersions": "syngo MR E11", "SpacingBetweenSlices": 3.2999999917393, "SpecificCharacterSet": "ISO_IR 100", "StudyID": "2", "StudyTime": "150105.521000", "TransmitCoilName": "Body", "VariableFlipAngleFlag": "N", "WindowCenterWidthExplanation": "Algo1"}, "slices": {}}, "time": {"samples": {"AcquisitionNumber": [1, 2, 3, 4, 5, 6, 7, 8, 9, 10, 11, 12, 13, 14, 15, 16, 17, 18, 19, 20, 21, 22, 23, 24, 25, 26, 27, 28, 29, 30, 31, 32, 33, 34, 35, 36, 37, 38, 39, 40, 41, 42, 43, 44, 45, 46, 47, 48, 49, 50, 51, 52, 53, 54, 55, 56, 57, 58, 59, 60, 61, 62, 63, 64, 65, 66, 67, 68, 69, 70, 71, 72, 73, 74, 75, 76, 77, 78, 79, 80, 81, 82, 83, 84, 85, 86, 87, 88, 89, 90, 91, 92, 93, 94, 95, 96, 97, 98, 99, 100, 101, 102, 103, 104, 105, 106, 107, 108, 109, 110, 111, 112, 113, 114, 115, 116, 117, 118, 119, 120, 121, 122, 123, 124, 125, 126, 127, 128, 129, 130, 131, 132, 133, 134, 135, 136, 137, 138, 139, 140, 141, 142, 143, 144, 145, 146, 147, 148, 149, 150, 151, 152, 153, 154, 155, 156, 157, 158, 159, 160, 161, 162, 163, 164, 165, 166, 167, 168, 169, 170, 171, 172, 173, 174, 175, 176, 177, 178, 179, 180, 181, 182, 183, 184, 185, 186, 187, 188, 189, 190, 191, 192, 193, 194, 195, 196, 197, 198, 199, 200, 201, 202, 203, 204, 205, 206, 207, 208, 209, 210, 211, 212, 213, 214, 215, 216, 217, 218], "AcquisitionTime": ["151551.712500", "151552.322500", "151552.932500", "151553.542500", "151554.152500", "151554.762500", "151555.372500", "151555.982500", "151556.592500", "151557.202500", "151557.812500", "151558.422500", "151559.032500", "151559.642500", "151600.252500", "151600.862500", "151601.472500", "151602.082500", "151602.692500", "151603.302500", "151603.912500", "151604.522500", "151605.132500", "151605.742500", "151606.352500", "151606.962500", "151607.572500", "151608.182500", "151608.792500", "151609.402500", "151610.012500", "151610.622500", "151611.232500", "151611.842500", "151612.452500", "151613.062500", "151613.672500", "151614.282500", "151614.892500", "151615.502500", "151616.112500", "151616.722500", "151617.332500", "151617.942500", "151618.552500", "151619.162500", "151619.772500", "151620.382500", "151620.992500", "151621.602500", "151622.212500", "151622.822500", "151623.432500", "151624.042500", "151624.652500", "151625.262500", "151625.872500", "151626.482500", "151627.092500", "151627.702500", "151628.312500", "151628.922500", "151629.532500", "151630.142500", "151630.752500", "151631.362500", "151631.972500", "151632.582500", "151633.192500", "151633.802500", "151634.412500", "151635.022500", "151635.632500", "151636.242500", "151636.852500", "151637.462500", "151638.072500", "151638.682500", "151639.292500", "151639.902500", "151640.512500", "151641.122500", "151641.732500", "151642.342500", "151642.952500", "151643.562500", "151644.172500", "151644.782500", "151645.392500", "151646.002500", "151646.612500", "151647.222500", "151647.832500", "151648.442500", "151649.052500", "151649.662500", "151650.272500", "151650.882500", "151651.492500", "151652.102500", "151652.712500", "151653.322500", "151653.932500", "151654.542500", "151655.152500", "151655.762500", "151656.372500", "151656.982500", "151657.592500", "151658.202500", "151658.812500", "151659.422500", "151700.032500", "151700.642500", "151701.252500", "151701.862500", "151702.472500", "151703.082500", "151703.692500", "151704.302500", "151704.912500", "151705.522500", "151706.132500", "151706.742500", "151707.352500", "151707.962500", "151708.572500", "151709.182500", "151709.792500", "151710.402500", "151711.012500", "151711.622500", "151712.232500", "151712.842500", "151713.452500", "151714.062500", "151714.672500", "151715.282500", "151715.892500", "151716.502500", "151717.112500", "151717.722500", "151718.332500", "151718.942500", "151719.552500", "151720.162500", "151720.772500", "151721.382500", "151721.992500", "151722.602500", "151723.212500", "151723.822500", "151724.432500", "151725.042500", "151725.652500", "151726.262500", "151726.872500", "151727.482500", "151728.092500", "151728.702500", "151729.312500", "151729.922500", "151730.532500", "151731.142500", "151731.752500", "151732.362500", "151732.972500", "151733.582500", "151734.192500", "151734.802500", "151735.412500", "151736.022500", "151736.632500", "151737.242500", "151737.852500", "151738.462500", "151739.072500", "151739.682500", "151740.292500", "151740.902500", "151741.512500", "151742.122500", "151742.732500", "151743.342500", "151743.952500", "151744.562500", "151745.172500", "151745.782500", "151746.392500", "151747.002500", "151747.612500", "151748.222500", "151748.832500", "151749.442500", "151750.052500", "151750.662500", "151751.272500", "151751.882500", "151752.492500", "151753.102500", "151753.712500", "151754.322500", "151754.932500", "151755.542500", "151756.152500", "151756.762500", "151757.372500", "151757.982500", "151758.592500", "151759.202500", "151759.812500", "151800.422500", "151801.032500", "151801.642500", "151802.252500", "151802.862500", "151803.472500", "151804.082500"], "ContentTime": ["151611.045000", "151611.049000", "151611.051000", "151611.054000", "151611.056000", "151611.059000", "151611.061000", "151611.063000", "151611.066000", "151611.068000", "151611.071000", "151611.074000", "151611.076000", "151611.079000", "151611.081000", "151611.084000", "151611.087000", "151611.090000", "151611.092000", "151611.095000", "151611.098000", "151611.101000", "151611.104000", "151611.107000", "151611.109000", "151611.112000", "151611.114000", "151611.117000", "151611.119000", "151611.122000", "151631.040000", "151631.043000", "151631.047000", "151631.049000", "151631.051000", "151631.054000", "151631.056000", "151631.058000", "151631.061000", "151631.064000", "151631.066000", "151631.068000", "151631.071000", "151631.073000", "151631.076000", "151631.078000", "151631.081000", "151631.083000", "151631.085000", "151631.088000", "151631.090000", "151631.093000", "151631.095000", "151631.097000", "151631.100000", "151631.102000", "151631.104000", "151631.107000", "151631.109000", "151631.112000", "151631.114000", "151631.121000", "151631.123000", "151651.040000", "151651.043000", "151651.045000", "151651.048000", "151651.050000", "151651.052000", "151651.055000", "151651.057000", "151651.066000", "151651.068000", "151651.071000", "151651.073000", "151651.075000", "151651.078000", "151651.080000", "151651.082000", "151651.085000", "151651.087000", "151651.090000", "151651.092000", "151651.094000", "151651.097000", "151651.099000", "151651.102000", "151651.104000", "151651.106000", "151651.109000", "151651.111000", "151651.113000", "151651.116000", "151651.118000", "151651.121000", "151711.039000", "151711.042000", "151711.044000", "151711.047000", "151711.049000", "151711.052000", "151711.054000", "151711.056000", "151711.059000", "151711.061000", "151711.064000", "151711.066000", "151711.068000", "151711.071000", "151711.073000", "151711.076000", "151711.078000", "151711.081000", "151711.083000", "151711.085000", "151711.088000", "151711.090000", "151711.093000", "151711.095000", "151711.097000", "151711.100000", "151711.102000", "151711.105000", "151711.107000", "151711.110000", "151711.112000", "151711.114000", "151711.117000", "151731.039000", "151731.042000", "151731.044000", "151731.046000", "151731.049000", "151731.051000", "151731.053000", "151731.056000", "151731.058000", "151731.061000", "151731.063000", "151731.065000", "151731.068000", "151731.070000", "151731.072000", "151731.075000", "151731.077000", "151731.080000", "151731.082000", "151731.084000", "151731.087000", "151731.089000", "151731.092000", "151731.094000", "151731.096000", "151731.099000", "151731.101000", "151731.104000", "151731.106000", "151731.117000", "151731.119000", "151731.122000", "151731.124000", "151751.039000", "151751.042000", "151751.044000", "151751.047000", "151751.049000", "151751.051000", "151751.054000", "151751.056000", "151751.059000", "151751.061000", "151751.064000", "151751.066000", "151751.068000", "151751.071000", "151751.073000", "151751.076000", "151751.078000", "151751.081000", "151751.083000", "151751.086000", "151751.088000", "151751.090000", "151751.093000", "151751.095000", "151751.098000", "151751.100000", "151751.102000", "151751.105000", "151751.107000", "151751.110000", "151751.112000", "151751.114000", "151751.117000", "151805.903000", "151805.905000", "151805.908000", "151805.910000", "151805.913000", "151805.915000", "151805.918000", "151805.920000", "151805.922000", "151805.925000", "151805.927000", "151805.930000", "151805.934000", "151805.938000", "151805.940000", "151805.943000", "151805.945000", "151805.950000", "151805.954000", "151805.957000", "151805.961000", "151805.964000", "151805.967000", "151805.969000"], "InstanceCreationTime": ["151611.045000", "151611.049000", "151611.051000", "151611.054000", "151611.056000", "151611.059000", "151611.061000", "151611.063000", "151611.066000", "151611.068000", "151611.071000", "151611.074000", "151611.076000", "151611.079000", "151611.081000", "151611.084000", "151611.087000", "151611.090000", "151611.092000", "151611.095000", "151611.098000", "151611.101000", "151611.104000", "151611.107000", "151611.109000", "151611.112000", "151611.114000", "151611.117000", "151611.119000", "151611.122000", "151631.040000", "151631.043000", "151631.047000", "151631.049000", "151631.051000", "151631.054000", "151631.056000", "151631.058000", "151631.061000", "151631.064000", "151631.066000", "151631.068000", "151631.071000", "151631.073000", "151631.076000", "151631.078000", "151631.081000", "151631.083000", "151631.085000", "151631.088000", "151631.090000", "151631.093000", "151631.095000", "151631.097000", "151631.100000", "151631.102000", "151631.104000", "151631.107000", "151631.109000", "151631.112000", "151631.114000", "151631.121000", "151631.123000", "151651.040000", "151651.043000", "151651.045000", "151651.048000", "151651.050000", "151651.052000", "151651.055000", "151651.057000", "151651.066000", "151651.068000", "151651.071000", "151651.073000", "151651.075000", "151651.078000", "151651.080000", "151651.082000", "151651.085000", "151651.087000", "151651.090000", "151651.092000", "151651.094000", "151651.097000", "151651.099000", "151651.102000", "151651.104000", "151651.106000", "151651.109000", "151651.111000", "151651.113000", "151651.116000", "151651.118000", "151651.121000", "151711.039000", "151711.042000", "151711.044000", "151711.047000", "151711.049000", "151711.052000", "151711.054000", "151711.056000", "151711.059000", "151711.061000", "151711.064000", "151711.066000", "151711.068000", "151711.071000", "151711.073000", "151711.076000", "151711.078000", "151711.081000", "151711.083000", "151711.085000", "151711.088000", "151711.090000", "151711.093000", "151711.095000", "151711.097000", "151711.100000", "151711.102000", "151711.105000", "151711.107000", "151711.110000", "151711.112000", "151711.114000", "151711.117000", "151731.039000", "151731.042000", "151731.044000", "151731.046000", "151731.049000", "151731.051000", "151731.053000", "151731.056000", "151731.058000", "151731.061000", "151731.063000", "151731.065000", "151731.068000", "151731.070000", "151731.072000", "151731.075000", "151731.077000", "151731.080000", "151731.082000", "151731.084000", "151731.087000", "151731.089000", "151731.092000", "151731.094000", "151731.096000", "151731.099000", "151731.101000", "151731.104000", "151731.106000", "151731.117000", "151731.119000", "151731.122000", "151731.124000", "151751.039000", "151751.042000", "151751.044000", "151751.047000", "151751.049000", "151751.051000", "151751.054000", "151751.056000", "151751.059000", "151751.061000", "151751.064000", "151751.066000", "151751.068000", "151751.071000", "151751.073000", "151751.076000", "151751.078000", "151751.081000", "151751.083000", "151751.086000", "151751.088000", "151751.090000", "151751.093000", "151751.095000", "151751.098000", "151751.100000", "151751.102000", "151751.105000", "151751.107000", "151751.110000", "151751.112000", "151751.114000", "151751.117000", "151805.903000", "151805.905000", "151805.908000", "151805.910000", "151805.913000", "151805.915000", "151805.918000", "151805.920000", "151805.922000", "151805.925000", "151805.927000", "151805.930000", "151805.934000", "151805.938000", "151805.940000", "151805.943000", "151805.945000", "151805.950000", "151805.954000", "151805.957000", "151805.961000", "151805.964000", "151805.967000", "151805.969000"], "InstanceNumber": [1, 2, 3, 4, 5, 6, 7, 8, 9, 10, 11, 12, 13, 14, 15, 16, 17, 18, 19, 20, 21, 22, 23, 24, 25, 26, 27, 28, 29, 30, 31, 32, 33, 34, 35, 36, 37, 38, 39, 40, 41, 42, 43, 44, 45, 46, 47, 48, 49, 50, 51, 52, 53, 54, 55, 56, 57, 58, 59, 60, 61, 62, 63, 64, 65, 66, 67, 68, 69, 70, 71, 72, 73, 74, 75, 76, 77, 78, 79, 80, 81, 82, 83, 84, 85, 86, 87, 88, 89, 90, 91, 92, 93, 94, 95, 96, 97, 98, 99, 100, 101, 102, 103, 104, 105, 106, 107, 108, 109, 110, 111, 112, 113, 114, 115, 116, 117, 118, 119, 120, 121, 122, 123, 124, 125, 126, 127, 128, 129, 130, 131, 132, 133, 134, 135, 136, 137, 138, 139, 140, 141, 142, 143, 144, 145, 146, 147, 148, 149, 150, 151, 152, 153, 154, 155, 156, 157, 158, 159, 160, 161, 162, 163, 164, 165, 166, 167, 168, 169, 170, 171, 172, 173, 174, 175, 176, 177, 178, 179, 180, 181, 182, 183, 184, 185, 186, 187, 188, 189, 190, 191, 192, 193, 194, 195, 196, 197, 198, 199, 200, 201, 202, 203, 204, 205, 206, 207, 208, 209, 210, 211, 212, 213, 214, 215, 216, 217, 218], "LargestImagePixelValue": [591, 591, 590, 585, 586, 584, 585, 586, 583, 583, 583, 586, 597, 586, 593, 573, 579, 578, 597, 604, 592, 586, 595, 597, 602, 585, 596, 599, 601, 600, 600, 603, 592, 591, 608, 800, 650, 727, 620, 635, 688, 753, 620, 660, 607, 618, 594, 586, 598, 629, 634, 626, 624, 623, 605, 603, 599, 585, 620, 621, 620, 623, 632, 605, 602, 618, 621, 598, 623, 627, 594, 596, 608, 607, 643, 623, 592, 586, 631, 619, 582, 614, 605, 577, 592, 616, 618, 634, 620, 611, 600, 614, 610, 631, 618, 630, 620, 692, 608, 700, 680, 687, 635, 597, 648, 608, 630, 585, 609, 594, 619, 587, 602, 602, 600, 599, 609, 594, 594, 593, 600, 617, 632, 630, 633, 617, 630, 626, 620, 620, 620, 628, 623, 621, 625, 637, 630, 628, 637, 611, 626, 629, 636, 622, 625, 664, 631, 623, 639, 594, 602, 600, 612, 605, 614, 597, 598, 595, 607, 590, 594, 613, 589, 588, 592, 587, 604, 609, 628, 598, 637, 614, 607, 631, 604, 598, 600, 596, 597, 595, 587, 589, 592, 628, 605, 602, 607, 602, 598, 627, 571, 650, 635, 588, 612, 588, 621, 602, 608, 582, 597, 593, 584, 614, 629, 624, 607, 652, 633, 616, 608, 606, 592, 585, 577, 624, 587, 747], "WindowCenter": [338.0, 335.0, 334.0, 333.0, 331.0, 330.0, 332.0, 331.0, 330.0, 331.0, 331.0, 331.0, 332.0, 331.0, 332.0, 330.0, 331.0, 331.0, 332.0, 332.0, 331.0, 331.0, 332.0, 333.0, 331.0, 330.0, 331.0, 330.0, 331.0, 331.0, 331.0, 333.0, 332.0, 329.0, 329.0, 333.0, 330.0, 332.0, 331.0, 330.0, 333.0, 332.0, 329.0, 329.0, 329.0, 328.0, 327.0, 324.0, 327.0, 328.0, 328.0, 326.0, 325.0, 326.0, 325.0, 324.0, 325.0, 321.0, 322.0, 323.0, 324.0, 322.0, 326.0, 328.0, 327.0, 327.0, 327.0, 326.0, 327.0, 328.0, 328.0, 328.0, 329.0, 328.0, 330.0, 331.0, 328.0, 327.0, 331.0, 330.0, 329.0, 329.0, 328.0, 327.0, 329.0, 329.0, 328.0, 329.0, 329.0, 330.0, 328.0, 329.0, 329.0, 330.0, 329.0, 330.0, 329.0, 331.0, 326.0, 331.0, 331.0, 331.0, 330.0, 331.0, 329.0, 331.0, 329.0, 329.0, 329.0, 329.0, 328.0, 325.0, 326.0, 327.0, 325.0, 324.0, 324.0, 324.0, 323.0, 321.0, 322.0, 324.0, 325.0, 327.0, 328.0, 329.0, 329.0, 327.0, 328.0, 328.0, 328.0, 328.0, 328.0, 327.0, 328.0, 329.0, 330.0, 329.0, 332.0, 330.0, 331.0, 330.0, 331.0, 333.0, 330.0, 333.0, 332.0, 332.0, 332.0, 329.0, 329.0, 329.0, 330.0, 333.0, 331.0, 330.0, 330.0, 331.0, 331.0, 330.0, 329.0, 330.0, 329.0, 330.0, 329.0, 330.0, 330.0, 328.0, 330.0, 331.0, 330.0, 332.0, 331.0, 330.0, 329.0, 331.0, 330.0, 329.0, 328.0, 329.0, 328.0, 329.0, 329.0, 329.0, 329.0, 328.0, 319.0, 327.0, 327.0, 328.0, 328.0, 333.0, 331.0, 328.0, 330.0, 328.0, 330.0, 329.0, 329.0, 327.0, 330.0, 329.0, 323.0, 328.0, 328.0, 329.0, 324.0, 324.0, 327.0, 330.0, 327.0, 327.0, 328.0, 329.0, 329.0, 330.0, 327.0, 328.0], "WindowWidth": [722.0, 718.0, 715.0, 713.0, 710.0, 708.0, 711.0, 710.0, 709.0, 710.0, 709.0, 709.0, 711.0, 710.0, 711.0, 709.0, 709.0, 710.0, 712.0, 712.0, 710.0, 710.0, 710.0, 713.0, 710.0, 707.0, 709.0, 708.0, 710.0, 709.0, 709.0, 713.0, 711.0, 706.0, 707.0, 712.0, 708.0, 711.0, 709.0, 708.0, 714.0, 710.0, 707.0, 706.0, 707.0, 704.0, 702.0, 697.0, 701.0, 705.0, 704.0, 701.0, 698.0, 699.0, 697.0, 696.0, 698.0, 692.0, 693.0, 694.0, 696.0, 693.0, 699.0, 704.0, 703.0, 702.0, 702.0, 701.0, 703.0, 705.0, 705.0, 705.0, 706.0, 703.0, 708.0, 710.0, 705.0, 702.0, 711.0, 707.0, 706.0, 706.0, 703.0, 703.0, 707.0, 705.0, 704.0, 705.0, 706.0, 709.0, 705.0, 706.0, 706.0, 707.0, 706.0, 707.0, 706.0, 709.0, 700.0, 710.0, 709.0, 709.0, 707.0, 711.0, 706.0, 710.0, 706.0, 707.0, 705.0, 705.0, 704.0, 698.0, 700.0, 702.0, 697.0, 696.0, 695.0, 695.0, 693.0, 691.0, 692.0, 695.0, 699.0, 701.0, 703.0, 705.0, 705.0, 703.0, 703.0, 704.0, 703.0, 704.0, 704.0, 702.0, 705.0, 705.0, 707.0, 706.0, 711.0, 708.0, 709.0, 708.0, 710.0, 713.0, 707.0, 713.0, 712.0, 711.0, 711.0, 707.0, 706.0, 707.0, 707.0, 714.0, 710.0, 707.0, 707.0, 709.0, 710.0, 708.0, 706.0, 709.0, 707.0, 708.0, 706.0, 708.0, 708.0, 705.0, 708.0, 710.0, 708.0, 712.0, 710.0, 707.0, 706.0, 709.0, 707.0, 706.0, 705.0, 705.0, 705.0, 705.0, 705.0, 707.0, 706.0, 704.0, 688.0, 702.0, 703.0, 704.0, 705.0, 713.0, 709.0, 705.0, 707.0, 704.0, 708.0, 705.0, 705.0, 703.0, 709.0, 705.0, 696.0, 705.0, 704.0, 706.0, 696.0, 697.0, 703.0, 707.0, 703.0, 703.0, 704.0, 705.0, 706.0, 707.0, 703.0, 704.0]}, "slices": {}}, "EventTimestamp": "15-18-33"}