{"AcquisitionMatrixPE": 64, "AcquisitionNumber": 1, "AcquisitionTime": "11:02:20.707500", "BandwidthPerPixelPhaseEncode": 28.935, "BaseResolution": 64, "BodyPartExamined": "BRAIN", "CoilCombinationMethod": "Sum of Squares", "ConsistencyInfo": "N4_VE11E_LATEST_20181129", "ConversionSoftware": "dcm2niix", "ConversionSoftwareVersion": "v1.0.20230411", "DerivedVendorReportedEchoSpacing": 0.000540003, "DeviceSerialNumber": "166182", "DwellTime": 3.4e-06, "EchoTime": 0.032, "EchoTrainLength": 64, "EffectiveEchoSpacing": 0.000540003, "FlipAngle": 40, "HeudiconvVersion": "0.13.1", "ImageOrientationPatientDICOM": [0.997193, -0.0554721, 0.0502938, 0.0592441, 0.995277, -0.0769017], "ImageOrientationText": "Tra>Cor(-4.6)>Sag(2.6)", "ImageType": ["ORIGINAL", "PRIMARY", "M", "ND", "NORM", "MOSAIC"], "ImagingFrequency": 123.254901, "InPlanePhaseEncodingDirectionDICOM": "COL", "InstitutionAddress": "PEARSE STREET .,City,District,IE,D2", "InstitutionName": "TCIN", "InstitutionalDepartmentName": "MRI", "MRAcquisitionType": "2D", "MagneticFieldStrength": 3, "Manufacturer": "Siemens", "ManufacturersModelName": "Prisma", "Modality": "MR", "MultibandAccelerationFactor": 4, "NonlinearGradientCorrection": false, "PartialFourier": 1, "PatientPosition": "HFS", "PercentPhaseFOV": 100, "PercentSampling": 100, "PhaseEncodingDirection": "j-", "PhaseEncodingSteps": 64, "PhaseResolution": 1, "PixelBandwidth": 2300, "ProcedureStepDescription": "Rhodri^Head BOLD", "ProtocolName": "cmrr_mbep2d_Pictures_AP_RDS", "PulseSequenceDetails": "%SiemensSeq%\\ep2d_bold", "ReceiveCoilActiveElements": "HC2,4,6,7;SC", "ReceiveCoilName": "SpecialPurpose_4", "ReconMatrixPE": 64, "RefLinesPE": 12, "RepetitionTime": 0.61, "SAR": 0.195362, "ScanOptions": "FS", "ScanningSequence": "EP", "SequenceName": "*epfid2d1_64", "SequenceVariant": "SK", "SeriesDescription": "cmrr_mbep2d_Pictures_AP_RDS", "SeriesNumber": 8, "ShimSetting": [-3531, -7441, 3899, 852, 13, -162, 71, -5], "SliceThickness": 3, "SliceTiming": [0.2625, 0, 0.3275, 0.065, 0.3925, 0.13, 0.4575, 0.1975, 0.525, 0.2625, 0, 0.3275, 0.065, 0.3925, 0.13, 0.4575, 0.1975, 0.525, 0.2625, 0, 0.3275, 0.065, 0.3925, 0.13, 0.4575, 0.1975, 0.525, 0.2625, 0, 0.3275, 0.065, 0.3925, 0.13, 0.4575, 0.1975, 0.525], "SoftwareVersions": "syngo MR E11", "SpacingBetweenSlices": 3.3, "StationName": "AWP166182", "TaskName": "pictures", "TotalReadoutTime": 0.0340202, "TxRefAmp": 220.698, "dcmmeta_affine": [[-2.9915783405303955, 0.17773230373859406, 0.15110810101032257, 91.03358459472656], [0.16641631722450256, 2.9858310222625732, -0.26289603114128113, -115.45892333984375], [0.1508813202381134, 0.23070520162582397, 3.286038875579834, -98.41043853759766], [0.0, 0.0, 0.0, 1.0]], "dcmmeta_reorient_transform": [[0.0, -1.0, 0.0, 63.0], [1.0, 0.0, 0.0, 0.0], [0.0, 0.0, 1.0, 0.0], [0.0, 0.0, 0.0, 1.0]], "dcmmeta_shape": [64, 64, 36, 150], "dcmmeta_slice_dim": 2, "dcmmeta_version": 0.6, "global": {"const": {"AcquisitionMatrix": [64, 0, 0, 64], "AngioFlag": "N", "BitsAllocated": 16, "BitsStored": 12, "BodyPartExamined": "BRAIN", "Columns": 384, "EchoNumbers": 1, "EchoTime": 32.0, "EchoTrainLength": 64, "FlipAngle": 40.0, "HighBit": 11, "ImageOrientationPatient": [0.99719275052069, -0.0554721074164, 0.05029377305161, 0.05924410266842, 0.99527697633526, -0.0769017338943], "ImagePositionPatient": [-609.32040745955, -523.7547590383, -71.104188700125], "ImageType": ["ORIGINAL", "PRIMARY", "M", "ND", "NORM", "MOSAIC"], "ImagedNucleus": "1H", "ImagingFrequency": 123.254901, "InPlanePhaseEncodingDirection": "COL", "MRAcquisitionType": "2D", "MagneticFieldStrength": 3.0, "Manufacturer": "SIEMENS", "ManufacturerModelName": "Prisma", "Modality": "MR", "NumberOfAverages": 1.0, "NumberOfPhaseEncodingSteps": 64, "PercentPhaseFieldOfView": 100.0, "PercentSampling": 100.0, "PerformedProcedureStepStartTime": "104757.936000", "PhotometricInterpretation": "MONOCHROME2", "PixelBandwidth": 2300.0, "PixelRepresentation": 0, "PixelSpacing": [3.0, 3.0], "ProtocolName": "cmrr_mbep2d_Pictures_AP_RDS", "RepetitionTime": 610.0, "Rows": 384, "SAR": 0.19536183239828, "SamplesPerPixel": 1, "ScanOptions": "FS", "ScanningSequence": "EP", "SequenceName": "*epfid2d1_64", "SequenceVariant": "SK", "SeriesDescription": "cmrr_mbep2d_Pictures_AP_RDS", "SeriesNumber": 8, "SeriesTime": "110248.689000", "SliceLocation": -84.627553841708, "SliceThickness": 3.0, "SmallestImagePixelValue": 0, "SoftwareVersions": "syngo MR E11", "SpacingBetweenSlices": 3.2999999592389, "SpecificCharacterSet": "ISO_IR 100", "StudyID": "2", "StudyTime": "104757.889000", "TransmitCoilName": "Body", "VariableFlipAngleFlag": "N", "WindowCenterWidthExplanation": "Algo1"}, "slices": {}}, "time": {"samples": {"AcquisitionNumber": [1, 2, 3, 4, 5, 6, 7, 8, 9, 10, 11, 12, 13, 14, 15, 16, 17, 18, 19, 20, 21, 22, 23, 24, 25, 26, 27, 28, 29, 30, 31, 32, 33, 34, 35, 36, 37, 38, 39, 40, 41, 42, 43, 44, 45, 46, 47, 48, 49, 50, 51, 52, 53, 54, 55, 56, 57, 58, 59, 60, 61, 62, 63, 64, 65, 66, 67, 68, 69, 70, 71, 72, 73, 74, 75, 76, 77, 78, 79, 80, 81, 82, 83, 84, 85, 86, 87, 88, 89, 90, 91, 92, 93, 94, 95, 96, 97, 98, 99, 100, 101, 102, 103, 104, 105, 106, 107, 108, 109, 110, 111, 112, 113, 114, 115, 116, 117, 118, 119, 120, 121, 122, 123, 124, 125, 126, 127, 128, 129, 130, 131, 132, 133, 134, 135, 136, 137, 138, 139, 140, 141, 142, 143, 144, 145, 146, 147, 148, 149, 150], "AcquisitionTime": ["110220.707500", "110221.317500", "110221.927500", "110222.537500", "110223.147500", "110223.757500", "110224.367500", "110224.977500", "110225.587500", "110226.197500", "110226.807500", "110227.417500", "110228.027500", "110228.637500", "110229.247500", "110229.857500", "110230.467500", "110231.077500", "110231.687500", "110232.297500", "110232.907500", "110233.517500", "110234.127500", "110234.737500", "110235.347500", "110235.957500", "110236.567500", "110237.177500", "110237.787500", "110238.397500", "110239.007500", "110239.617500", "110240.227500", "110240.837500", "110241.447500", "110242.057500", "110242.667500", "110243.277500", "110243.887500", "110244.497500", "110245.107500", "110245.717500", "110246.327500", "110246.937500", "110247.547500", "110248.157500", "110248.767500", "110249.377500", "110249.987500", "110250.597500", "110251.207500", "110251.817500", "110252.427500", "110253.037500", "110253.647500", "110254.257500", "110254.867500", "110255.477500", "110256.087500", "110256.697500", "110257.307500", "110257.917500", "110258.527500", "110259.137500", "110259.747500", "110300.357500", "110300.967500", "110301.577500", "110302.187500", "110302.797500", "110303.407500", "110304.017500", "110304.627500", "110305.237500", "110305.847500", "110306.457500", "110307.067500", "110307.677500", "110308.287500", "110308.897500", "110309.507500", "110310.117500", "110310.727500", "110311.337500", "110311.947500", "110312.557500", "110313.167500", "110313.777500", "110314.387500", "110314.997500", "110315.607500", "110316.217500", "110316.827500", "110317.437500", "110318.047500", "110318.657500", "110319.267500", "110319.877500", "110320.487500", "110321.097500", "110321.707500", "110322.317500", "110322.927500", "110323.537500", "110324.147500", "110324.757500", "110325.367500", "110325.977500", "110326.587500", "110327.197500", "110327.807500", "110328.417500", "110329.027500", "110329.637500", "110330.247500", "110330.857500", "110331.467500", "110332.077500", "110332.687500", "110333.297500", "110333.907500", "110334.517500", "110335.127500", "110335.737500", "110336.347500", "110336.957500", "110337.567500", "110338.177500", "110338.787500", "110339.397500", "110340.007500", "110340.617500", "110341.227500", "110341.837500", "110342.447500", "110343.057500", "110343.667500", "110344.277500", "110344.887500", "110345.497500", "110346.107500", "110346.717500", "110347.327500", "110347.937500", "110348.547500", "110349.157500", "110349.767500", "110350.377500", "110350.987500", "110351.597500"], "ContentTime": ["110248.693000", "110248.696000", "110248.698000", "110248.701000", "110248.703000", "110248.705000", "110248.707000", "110248.710000", "110248.712000", "110248.714000", "110248.717000", "110248.720000", "110248.722000", "110248.728000", "110248.731000", "110248.733000", "110248.735000", "110248.738000", "110248.740000", "110248.756000", "110248.758000", "110248.760000", "110248.763000", "110248.765000", "110248.768000", "110248.770000", "110248.773000", "110248.775000", "110248.777000", "110248.779000", "110248.782000", "110248.784000", "110248.786000", "110248.789000", "110248.791000", "110248.793000", "110248.796000", "110248.798000", "110248.801000", "110248.803000", "110248.805000", "110248.808000", "110248.810000", "110248.812000", "110308.688000", "110308.691000", "110308.693000", "110308.695000", "110308.698000", "110308.700000", "110308.702000", "110308.705000", "110308.707000", "110308.709000", "110308.712000", "110308.714000", "110308.716000", "110308.719000", "110308.721000", "110308.723000", "110308.726000", "110308.728000", "110308.730000", "110308.733000", "110308.735000", "110308.737000", "110308.740000", "110308.742000", "110308.744000", "110308.747000", "110308.749000", "110308.751000", "110308.754000", "110308.756000", "110308.758000", "110308.761000", "110308.763000", "110328.688000", "110328.691000", "110328.693000", "110328.696000", "110328.698000", "110328.700000", "110328.703000", "110328.708000", "110328.711000", "110328.713000", "110328.715000", "110328.718000", "110328.720000", "110328.722000", "110328.724000", "110328.727000", "110328.729000", "110328.731000", "110328.734000", "110328.736000", "110328.738000", "110328.741000", "110328.743000", "110328.745000", "110328.748000", "110328.750000", "110328.752000", "110328.755000", "110328.757000", "110328.759000", "110328.762000", "110328.764000", "110328.766000", "110348.689000", "110348.692000", "110348.694000", "110348.697000", "110348.699000", "110348.701000", "110348.704000", "110348.706000", "110348.708000", "110348.711000", "110348.713000", "110348.716000", "110348.718000", "110348.720000", "110348.723000", "110348.725000", "110348.727000", "110348.730000", "110348.732000", "110348.734000", "110348.737000", "110348.739000", "110348.741000", "110348.744000", "110348.746000", "110348.748000", "110348.751000", "110348.753000", "110348.761000", "110348.763000", "110348.765000", "110348.768000", "110348.770000", "110353.739000", "110353.742000", "110353.745000", "110353.748000", "110353.750000", "110353.753000", "110353.755000"], "InstanceCreationTime": ["110248.693000", "110248.696000", "110248.698000", "110248.701000", "110248.703000", "110248.705000", "110248.707000", "110248.710000", "110248.712000", "110248.714000", "110248.717000", "110248.720000", "110248.722000", "110248.728000", "110248.731000", "110248.733000", "110248.735000", "110248.738000", "110248.740000", "110248.756000", "110248.758000", "110248.760000", "110248.763000", "110248.765000", "110248.768000", "110248.770000", "110248.773000", "110248.775000", "110248.777000", "110248.779000", "110248.782000", "110248.784000", "110248.786000", "110248.789000", "110248.791000", "110248.793000", "110248.796000", "110248.798000", "110248.801000", "110248.803000", "110248.805000", "110248.808000", "110248.810000", "110248.812000", "110308.688000", "110308.691000", "110308.693000", "110308.695000", "110308.698000", "110308.700000", "110308.702000", "110308.705000", "110308.707000", "110308.709000", "110308.712000", "110308.714000", "110308.716000", "110308.719000", "110308.721000", "110308.723000", "110308.726000", "110308.728000", "110308.730000", "110308.733000", "110308.735000", "110308.737000", "110308.740000", "110308.742000", "110308.744000", "110308.747000", "110308.749000", "110308.751000", "110308.754000", "110308.756000", "110308.758000", "110308.761000", "110308.763000", "110328.688000", "110328.691000", "110328.693000", "110328.696000", "110328.698000", "110328.700000", "110328.703000", "110328.708000", "110328.711000", "110328.713000", "110328.715000", "110328.718000", "110328.720000", "110328.722000", "110328.724000", "110328.727000", "110328.729000", "110328.731000", "110328.734000", "110328.736000", "110328.738000", "110328.741000", "110328.743000", "110328.745000", "110328.748000", "110328.750000", "110328.752000", "110328.755000", "110328.757000", "110328.759000", "110328.762000", "110328.764000", "110328.766000", "110348.689000", "110348.692000", "110348.694000", "110348.697000", "110348.699000", "110348.701000", "110348.704000", "110348.706000", "110348.708000", "110348.711000", "110348.713000", "110348.716000", "110348.718000", "110348.720000", "110348.723000", "110348.725000", "110348.727000", "110348.730000", "110348.732000", "110348.734000", "110348.737000", "110348.739000", "110348.741000", "110348.744000", "110348.746000", "110348.748000", "110348.751000", "110348.753000", "110348.761000", "110348.763000", "110348.765000", "110348.768000", "110348.770000", "110353.739000", "110353.742000", "110353.745000", "110353.748000", "110353.750000", "110353.753000", "110353.755000"], "InstanceNumber": [1, 2, 3, 4, 5, 6, 7, 8, 9, 10, 11, 12, 13, 14, 15, 16, 17, 18, 19, 20, 21, 22, 23, 24, 25, 26, 27, 28, 29, 30, 31, 32, 33, 34, 35, 36, 37, 38, 39, 40, 41, 42, 43, 44, 45, 46, 47, 48, 49, 50, 51, 52, 53, 54, 55, 56, 57, 58, 59, 60, 61, 62, 63, 64, 65, 66, 67, 68, 69, 70, 71, 72, 73, 74, 75, 76, 77, 78, 79, 80, 81, 82, 83, 84, 85, 86, 87, 88, 89, 90, 91, 92, 93, 94, 95, 96, 97, 98, 99, 100, 101, 102, 103, 104, 105, 106, 107, 108, 109, 110, 111, 112, 113, 114, 115, 116, 117, 118, 119, 120, 121, 122, 123, 124, 125, 126, 127, 128, 129, 130, 131, 132, 133, 134, 135, 136, 137, 138, 139, 140, 141, 142, 143, 144, 145, 146, 147, 148, 149, 150], "LargestImagePixelValue": [618, 587, 566, 574, 629, 658, 642, 596, 637, 636, 606, 601, 597, 616, 607, 602, 560, 623, 575, 610, 569, 587, 573, 562, 606, 573, 541, 602, 621, 605, 588, 565, 575, 606, 604, 579, 557, 597, 589, 570, 566, 577, 581, 559, 560, 569, 554, 589, 564, 564, 575, 640, 548, 661, 607, 622, 591, 574, 585, 588, 586, 586, 616, 604, 603, 588, 613, 603, 605, 571, 614, 596, 646, 619, 593, 585, 571, 574, 601, 589, 588, 602, 586, 601, 581, 574, 560, 583, 587, 550, 616, 571, 573, 678, 564, 595, 618, 616, 616, 657, 610, 570, 597, 590, 597, 580, 608, 641, 620, 624, 584, 592, 617, 585, 603, 584, 584, 564, 594, 568, 587, 569, 590, 585, 586, 594, 593, 591, 563, 591, 631, 569, 596, 599, 630, 610, 577, 551, 576, 589, 670, 594, 644, 570, 633, 620, 609, 573, 564, 649], "WindowCenter": [322.0, 320.0, 316.0, 314.0, 320.0, 316.0, 315.0, 319.0, 318.0, 318.0, 317.0, 317.0, 316.0, 316.0, 316.0, 317.0, 316.0, 321.0, 312.0, 310.0, 309.0, 313.0, 314.0, 310.0, 314.0, 310.0, 311.0, 321.0, 316.0, 316.0, 314.0, 319.0, 307.0, 315.0, 320.0, 317.0, 314.0, 321.0, 319.0, 315.0, 313.0, 313.0, 316.0, 315.0, 316.0, 315.0, 315.0, 317.0, 314.0, 312.0, 307.0, 318.0, 300.0, 314.0, 315.0, 314.0, 315.0, 312.0, 312.0, 310.0, 306.0, 310.0, 312.0, 315.0, 318.0, 314.0, 309.0, 314.0, 316.0, 311.0, 316.0, 317.0, 315.0, 314.0, 317.0, 312.0, 318.0, 317.0, 317.0, 313.0, 315.0, 319.0, 320.0, 317.0, 317.0, 316.0, 314.0, 316.0, 316.0, 314.0, 308.0, 323.0, 313.0, 322.0, 314.0, 309.0, 319.0, 313.0, 309.0, 315.0, 317.0, 319.0, 312.0, 309.0, 319.0, 310.0, 287.0, 327.0, 323.0, 316.0, 310.0, 316.0, 318.0, 317.0, 318.0, 316.0, 318.0, 313.0, 318.0, 311.0, 321.0, 317.0, 317.0, 316.0, 313.0, 314.0, 312.0, 313.0, 315.0, 319.0, 320.0, 311.0, 317.0, 314.0, 315.0, 315.0, 315.0, 310.0, 311.0, 315.0, 316.0, 316.0, 313.0, 314.0, 318.0, 316.0, 313.0, 316.0, 309.0, 319.0], "WindowWidth": [695.0, 692.0, 683.0, 679.0, 691.0, 682.0, 682.0, 688.0, 687.0, 687.0, 684.0, 685.0, 683.0, 683.0, 683.0, 683.0, 682.0, 691.0, 676.0, 671.0, 670.0, 678.0, 679.0, 671.0, 679.0, 673.0, 673.0, 693.0, 682.0, 682.0, 679.0, 688.0, 666.0, 681.0, 691.0, 684.0, 678.0, 693.0, 688.0, 680.0, 678.0, 678.0, 683.0, 680.0, 682.0, 681.0, 680.0, 684.0, 678.0, 674.0, 667.0, 688.0, 652.0, 680.0, 683.0, 679.0, 680.0, 674.0, 676.0, 672.0, 664.0, 671.0, 676.0, 681.0, 688.0, 680.0, 670.0, 679.0, 683.0, 674.0, 683.0, 685.0, 681.0, 679.0, 684.0, 677.0, 686.0, 685.0, 685.0, 677.0, 681.0, 688.0, 690.0, 683.0, 684.0, 682.0, 678.0, 682.0, 682.0, 678.0, 667.0, 696.0, 676.0, 694.0, 679.0, 670.0, 689.0, 678.0, 671.0, 681.0, 686.0, 689.0, 675.0, 670.0, 689.0, 673.0, 628.0, 704.0, 696.0, 683.0, 672.0, 683.0, 686.0, 686.0, 686.0, 683.0, 688.0, 678.0, 686.0, 674.0, 692.0, 685.0, 684.0, 682.0, 676.0, 678.0, 676.0, 676.0, 681.0, 688.0, 690.0, 673.0, 683.0, 679.0, 682.0, 680.0, 681.0, 671.0, 672.0, 682.0, 683.0, 682.0, 678.0, 678.0, 687.0, 683.0, 677.0, 683.0, 670.0, 688.0]}, "slices": {}}, "EventTimestamp": "11-05-40"}