{"AcquisitionMatrixPE": 64, "AcquisitionNumber": 1, "AcquisitionTime": "12:45:51.722500", "BandwidthPerPixelPhaseEncode": 28.935, "BaseResolution": 64, "BodyPartExamined": "BRAIN", "CoilCombinationMethod": "Sum of Squares", "ConsistencyInfo": "N4_VE11E_LATEST_20181129", "ConversionSoftware": "dcm2niix", "ConversionSoftwareVersion": "v1.0.20230411", "DerivedVendorReportedEchoSpacing": 0.000540003, "DeviceSerialNumber": "166182", "DwellTime": 3.4e-06, "EchoTime": 0.032, "EchoTrainLength": 64, "EffectiveEchoSpacing": 0.000540003, "FlipAngle": 40, "HeudiconvVersion": "0.13.1", "ImageOrientationPatientDICOM": [0.99986, -0.0129039, 0.0106228, 0.0129144, 0.999916, -0.000915586], "ImageOrientationText": "Tra>Sag(0.6)>Cor(-0.1)", "ImageType": ["ORIGINAL", "PRIMARY", "M", "ND", "NORM", "MOSAIC"], "ImagingFrequency": 123.255889, "InPlanePhaseEncodingDirectionDICOM": "COL", "InstitutionAddress": "PEARSE STREET .,City,District,IE,D2", "InstitutionName": "TCIN", "InstitutionalDepartmentName": "MRI", "MRAcquisitionType": "2D", "MagneticFieldStrength": 3, "Manufacturer": "Siemens", "ManufacturersModelName": "Prisma", "Modality": "MR", "MultibandAccelerationFactor": 4, "NonlinearGradientCorrection": false, "PartialFourier": 1, "PatientPosition": "HFS", "PercentPhaseFOV": 100, "PercentSampling": 100, "PhaseEncodingDirection": "j-", "PhaseEncodingSteps": 64, "PhaseResolution": 1, "PixelBandwidth": 2300, "ProcedureStepDescription": "Rhodri^Head BOLD", "ProtocolName": "cmrr_mbep2d_Pictures_AP_RDS", "PulseSequenceDetails": "%SiemensSeq%\\ep2d_bold", "ReceiveCoilActiveElements": "HC2,4,6,7;SC", "ReceiveCoilName": "SpecialPurpose_4", "ReconMatrixPE": 64, "RefLinesPE": 12, "RepetitionTime": 0.61, "SAR": 0.298031, "ScanOptions": "FS", "ScanningSequence": "EP", "SequenceName": "*epfid2d1_64", "SequenceVariant": "SK", "SeriesDescription": "cmrr_mbep2d_Pictures_AP_RDS", "SeriesNumber": 15, "ShimSetting": [-3645, -7511, 3699, 1048, 97, 141, 352, 170], "SliceThickness": 3, "SliceTiming": [0.2625, 0, 0.3275, 0.065, 0.3925, 0.13, 0.4575, 0.1975, 0.525, 0.2625, 0, 0.3275, 0.065, 0.3925, 0.13, 0.4575, 0.1975, 0.525, 0.2625, 0, 0.3275, 0.065, 0.3925, 0.13, 0.4575, 0.1975, 0.525, 0.2625, 0, 0.3275, 0.065, 0.3925, 0.13, 0.4575, 0.1975, 0.525], "SoftwareVersions": "syngo MR E11", "SpacingBetweenSlices": 3.3, "StationName": "AWP166182", "TaskName": "pictures", "TotalReadoutTime": 0.0340202, "TxRefAmp": 243.562, "dcmmeta_affine": [[-2.9995808601379395, 0.03874305635690689, 0.03501325100660324, 92.72010040283203], [0.03871171176433563, 2.999748468399048, -0.0034737277310341597, -94.96770477294922], [0.0318683423101902, 0.002746758982539177, 3.2998123168945312, -108.21466064453125], [0.0, 0.0, 0.0, 1.0]], "dcmmeta_reorient_transform": [[0.0, -1.0, 0.0, 63.0], [1.0, 0.0, 0.0, 0.0], [0.0, 0.0, 1.0, 0.0], [0.0, 0.0, 0.0, 1.0]], "dcmmeta_shape": [64, 64, 36, 510], "dcmmeta_slice_dim": 2, "dcmmeta_version": 0.6, "global": {"const": {"AcquisitionMatrix": [64, 0, 0, 64], "AngioFlag": "N", "BitsAllocated": 16, "BitsStored": 12, "BodyPartExamined": "BRAIN", "Columns": 384, "EchoNumbers": 1, "EchoTime": 32.0, "EchoTrainLength": 64, "FlipAngle": 40.0, "HighBit": 11, "ImageOrientationPatient": [0.99986031313992, -0.012903903556, 0.01062278121616, 0.01291435208075, 0.99991618709371, -0.0009155863168], "ImagePositionPatient": [-581.29275101514, -567.78234730517, -112.70107021418], "ImageType": ["ORIGINAL", "PRIMARY", "M", "ND", "NORM", "MOSAIC"], "ImagedNucleus": "1H", "ImagingFrequency": 123.255889, "InPlanePhaseEncodingDirection": "COL", "MRAcquisitionType": "2D", "MagneticFieldStrength": 3.0, "Manufacturer": "SIEMENS", "ManufacturerModelName": "Prisma", "Modality": "MR", "NumberOfAverages": 1.0, "NumberOfPhaseEncodingSteps": 64, "PercentPhaseFieldOfView": 100.0, "PercentSampling": 100.0, "PerformedProcedureStepStartTime": "115849.197000", "PhotometricInterpretation": "MONOCHROME2", "PixelBandwidth": 2300.0, "PixelRepresentation": 0, "PixelSpacing": [3.0, 3.0], "ProtocolName": "cmrr_mbep2d_Pictures_AP_RDS", "RepetitionTime": 610.0, "Rows": 384, "SAR": 0.29803057470566, "SamplesPerPixel": 1, "ScanOptions": "FS", "ScanningSequence": "EP", "SequenceName": "*epfid2d1_64", "SequenceVariant": "SK", "SeriesDescription": "cmrr_mbep2d_Pictures_AP_RDS", "SeriesNumber": 15, "SeriesTime": "124613.287000", "SliceLocation": -107.1247767014, "SliceThickness": 3.0, "SmallestImagePixelValue": 0, "SoftwareVersions": "syngo MR E11", "SpacingBetweenSlices": 3.3000000061528, "SpecificCharacterSet": "ISO_IR 100", "StudyID": "1", "StudyTime": "115849.008000", "TransmitCoilName": "Body", "VariableFlipAngleFlag": "N", "WindowCenterWidthExplanation": "Algo1"}, "slices": {}}, "time": {"samples": {"AcquisitionNumber": [1, 2, 3, 4, 5, 6, 7, 8, 9, 10, 11, 12, 13, 14, 15, 16, 17, 18, 19, 20, 21, 22, 23, 24, 25, 26, 27, 28, 29, 30, 31, 32, 33, 34, 35, 36, 37, 38, 39, 40, 41, 42, 43, 44, 45, 46, 47, 48, 49, 50, 51, 52, 53, 54, 55, 56, 57, 58, 59, 60, 61, 62, 63, 64, 65, 66, 67, 68, 69, 70, 71, 72, 73, 74, 75, 76, 77, 78, 79, 80, 81, 82, 83, 84, 85, 86, 87, 88, 89, 90, 91, 92, 93, 94, 95, 96, 97, 98, 99, 100, 101, 102, 103, 104, 105, 106, 107, 108, 109, 110, 111, 112, 113, 114, 115, 116, 117, 118, 119, 120, 121, 122, 123, 124, 125, 126, 127, 128, 129, 130, 131, 132, 133, 134, 135, 136, 137, 138, 139, 140, 141, 142, 143, 144, 145, 146, 147, 148, 149, 150, 151, 152, 153, 154, 155, 156, 157, 158, 159, 160, 161, 162, 163, 164, 165, 166, 167, 168, 169, 170, 171, 172, 173, 174, 175, 176, 177, 178, 179, 180, 181, 182, 183, 184, 185, 186, 187, 188, 189, 190, 191, 192, 193, 194, 195, 196, 197, 198, 199, 200, 201, 202, 203, 204, 205, 206, 207, 208, 209, 210, 211, 212, 213, 214, 215, 216, 217, 218, 219, 220, 221, 222, 223, 224, 225, 226, 227, 228, 229, 230, 231, 232, 233, 234, 235, 236, 237, 238, 239, 240, 241, 242, 243, 244, 245, 246, 247, 248, 249, 250, 251, 252, 253, 254, 255, 256, 257, 258, 259, 260, 261, 262, 263, 264, 265, 266, 267, 268, 269, 270, 271, 272, 273, 274, 275, 276, 277, 278, 279, 280, 281, 282, 283, 284, 285, 286, 287, 288, 289, 290, 291, 292, 293, 294, 295, 296, 297, 298, 299, 300, 301, 302, 303, 304, 305, 306, 307, 308, 309, 310, 311, 312, 313, 314, 315, 316, 317, 318, 319, 320, 321, 322, 323, 324, 325, 326, 327, 328, 329, 330, 331, 332, 333, 334, 335, 336, 337, 338, 339, 340, 341, 342, 343, 344, 345, 346, 347, 348, 349, 350, 351, 352, 353, 354, 355, 356, 357, 358, 359, 360, 361, 362, 363, 364, 365, 366, 367, 368, 369, 370, 371, 372, 373, 374, 375, 376, 377, 378, 379, 380, 381, 382, 383, 384, 385, 386, 387, 388, 389, 390, 391, 392, 393, 394, 395, 396, 397, 398, 399, 400, 401, 402, 403, 404, 405, 406, 407, 408, 409, 410, 411, 412, 413, 414, 415, 416, 417, 418, 419, 420, 421, 422, 423, 424, 425, 426, 427, 428, 429, 430, 431, 432, 433, 434, 435, 436, 437, 438, 439, 440, 441, 442, 443, 444, 445, 446, 447, 448, 449, 450, 451, 452, 453, 454, 455, 456, 457, 458, 459, 460, 461, 462, 463, 464, 465, 466, 467, 468, 469, 470, 471, 472, 473, 474, 475, 476, 477, 478, 479, 480, 481, 482, 483, 484, 485, 486, 487, 488, 489, 490, 491, 492, 493, 494, 495, 496, 497, 498, 499, 500, 501, 502, 503, 504, 505, 506, 507, 508, 509, 510], "AcquisitionTime": ["124551.722500", "124552.332500", "124552.942500", "124553.552500", "124554.162500", "124554.772500", "124555.382500", "124555.992500", "124556.602500", "124557.212500", "124557.822500", "124558.432500", "124559.042500", "124559.652500", "124600.262500", "124600.872500", "124601.482500", "124602.092500", "124602.702500", "124603.312500", "124603.922500", "124604.532500", "124605.142500", "124605.752500", "124606.362500", "124606.972500", "124607.582500", "124608.192500", "124608.802500", "124609.412500", "124610.022500", "124610.632500", "124611.242500", "124611.852500", "124612.462500", "124613.072500", "124613.682500", "124614.292500", "124614.902500", "124615.512500", "124616.122500", "124616.732500", "124617.342500", "124617.952500", "124618.562500", "124619.172500", "124619.782500", "124620.392500", "124621.002500", "124621.612500", "124622.222500", "124622.832500", "124623.442500", "124624.052500", "124624.662500", "124625.272500", "124625.882500", "124626.492500", "124627.102500", "124627.712500", "124628.322500", "124628.932500", "124629.542500", "124630.152500", "124630.762500", "124631.372500", "124631.982500", "124632.592500", "124633.202500", "124633.812500", "124634.422500", "124635.032500", "124635.642500", "124636.252500", "124636.862500", "124637.472500", "124638.082500", "124638.692500", "124639.302500", "124639.912500", "124640.522500", "124641.132500", "124641.742500", "124642.352500", "124642.962500", "124643.572500", "124644.182500", "124644.792500", "124645.402500", "124646.012500", "124646.622500", "124647.232500", "124647.842500", "124648.452500", "124649.062500", "124649.672500", "124650.282500", "124650.892500", "124651.502500", "124652.112500", "124652.722500", "124653.332500", "124653.942500", "124654.552500", "124655.162500", "124655.772500", "124656.382500", "124656.992500", "124657.602500", "124658.212500", "124658.822500", "124659.432500", "124700.042500", "124700.652500", "124701.262500", "124701.872500", "124702.482500", "124703.092500", "124703.702500", "124704.312500", "124704.922500", "124705.532500", "124706.142500", "124706.752500", "124707.362500", "124707.972500", "124708.582500", "124709.192500", "124709.802500", "124710.412500", "124711.022500", "124711.632500", "124712.242500", "124712.852500", "124713.462500", "124714.072500", "124714.682500", "124715.292500", "124715.902500", "124716.512500", "124717.122500", "124717.732500", "124718.342500", "124718.952500", "124719.562500", "124720.172500", "124720.782500", "124721.392500", "124722.002500", "124722.612500", "124723.222500", "124723.832500", "124724.442500", "124725.052500", "124725.662500", "124726.272500", "124726.882500", "124727.492500", "124728.102500", "124728.712500", "124729.322500", "124729.932500", "124730.542500", "124731.152500", "124731.762500", "124732.372500", "124732.982500", "124733.592500", "124734.202500", "124734.812500", "124735.422500", "124736.032500", "124736.642500", "124737.252500", "124737.862500", "124738.472500", "124739.082500", "124739.692500", "124740.302500", "124740.912500", "124741.522500", "124742.132500", "124742.742500", "124743.352500", "124743.962500", "124744.572500", "124745.182500", "124745.792500", "124746.402500", "124747.012500", "124747.622500", "124748.232500", "124748.842500", "124749.452500", "124750.062500", "124750.672500", "124751.282500", "124751.892500", "124752.502500", "124753.112500", "124753.722500", "124754.332500", "124754.942500", "124755.552500", "124756.162500", "124756.772500", "124757.382500", "124757.992500", "124758.602500", "124759.212500", "124759.822500", "124800.432500", "124801.042500", "124801.652500", "124802.262500", "124802.872500", "124803.482500", "124804.092500", "124804.702500", "124805.312500", "124805.922500", "124806.532500", "124807.142500", "124807.752500", "124808.362500", "124808.972500", "124809.582500", "124810.192500", "124810.802500", "124811.412500", "124812.022500", "124812.632500", "124813.242500", "124813.852500", "124814.462500", "124815.072500", "124815.682500", "124816.292500", "124816.902500", "124817.512500", "124818.122500", "124818.732500", "124819.342500", "124819.952500", "124820.562500", "124821.172500", "124821.782500", "124822.392500", "124823.002500", "124823.612500", "124824.222500", "124824.832500", "124825.442500", "124826.052500", "124826.662500", "124827.272500", "124827.882500", "124828.492500", "124829.102500", "124829.712500", "124830.322500", "124830.932500", "124831.542500", "124832.152500", "124832.762500", "124833.372500", "124833.982500", "124834.592500", "124835.202500", "124835.812500", "124836.422500", "124837.032500", "124837.642500", "124838.252500", "124838.862500", "124839.472500", "124840.082500", "124840.692500", "124841.302500", "124841.912500", "124842.522500", "124843.132500", "124843.742500", "124844.352500", "124844.962500", "124845.572500", "124846.182500", "124846.792500", "124847.402500", "124848.012500", "124848.622500", "124849.232500", "124849.842500", "124850.452500", "124851.062500", "124851.672500", "124852.282500", "124852.892500", "124853.502500", "124854.112500", "124854.722500", "124855.332500", "124855.942500", "124856.552500", "124857.162500", "124857.772500", "124858.382500", "124858.992500", "124859.602500", "124900.212500", "124900.822500", "124901.432500", "124902.042500", "124902.652500", "124903.262500", "124903.872500", "124904.482500", "124905.092500", "124905.702500", "124906.312500", "124906.922500", "124907.532500", "124908.142500", "124908.752500", "124909.362500", "124909.972500", "124910.582500", "124911.192500", "124911.802500", "124912.412500", "124913.022500", "124913.632500", "124914.242500", "124914.852500", "124915.462500", "124916.072500", "124916.682500", "124917.292500", "124917.902500", "124918.512500", "124919.122500", "124919.732500", "124920.342500", "124920.952500", "124921.562500", "124922.172500", "124922.782500", "124923.392500", "124924.002500", "124924.612500", "124925.222500", "124925.832500", "124926.442500", "124927.052500", "124927.662500", "124928.272500", "124928.882500", "124929.492500", "124930.102500", "124930.712500", "124931.322500", "124931.932500", "124932.542500", "124933.152500", "124933.762500", "124934.372500", "124934.982500", "124935.592500", "124936.202500", "124936.812500", "124937.422500", "124938.032500", "124938.642500", "124939.252500", "124939.862500", "124940.472500", "124941.082500", "124941.692500", "124942.302500", "124942.912500", "124943.522500", "124944.132500", "124944.742500", "124945.352500", "124945.962500", "124946.572500", "124947.182500", "124947.792500", "124948.402500", "124949.012500", "124949.622500", "124950.232500", "124950.842500", "124951.452500", "124952.062500", "124952.672500", "124953.282500", "124953.892500", "124954.502500", "124955.112500", "124955.722500", "124956.332500", "124956.942500", "124957.552500", "124958.162500", "124958.772500", "124959.382500", "124959.992500", "125000.602500", "125001.212500", "125001.822500", "125002.432500", "125003.042500", "125003.652500", "125004.262500", "125004.872500", "125005.482500", "125006.092500", "125006.702500", "125007.312500", "125007.922500", "125008.532500", "125009.142500", "125009.752500", "125010.362500", "125010.972500", "125011.582500", "125012.192500", "125012.802500", "125013.412500", "125014.022500", "125014.632500", "125015.242500", "125015.852500", "125016.462500", "125017.072500", "125017.682500", "125018.292500", "125018.902500", "125019.512500", "125020.122500", "125020.732500", "125021.342500", "125021.952500", "125022.562500", "125023.172500", "125023.782500", "125024.392500", "125025.002500", "125025.612500", "125026.222500", "125026.832500", "125027.442500", "125028.052500", "125028.662500", "125029.272500", "125029.882500", "125030.492500", "125031.102500", "125031.712500", "125032.322500", "125032.932500", "125033.542500", "125034.152500", "125034.762500", "125035.372500", "125035.982500", "125036.592500", "125037.202500", "125037.812500", "125038.422500", "125039.032500", "125039.642500", "125040.252500", "125040.862500", "125041.472500", "125042.082500", "125042.692500", "125043.302500", "125043.912500", "125044.522500", "125045.132500", "125045.742500", "125046.352500", "125046.962500", "125047.572500", "125048.182500", "125048.792500", "125049.402500", "125050.012500", "125050.622500", "125051.232500", "125051.842500", "125052.452500", "125053.062500", "125053.672500", "125054.282500", "125054.892500", "125055.502500", "125056.112500", "125056.722500", "125057.332500", "125057.942500", "125058.552500", "125059.162500", "125059.772500", "125100.382500", "125100.992500", "125101.602500", "125102.212500"], "ContentTime": ["124613.290000", "124613.293000", "124613.296000", "124613.298000", "124613.301000", "124613.303000", "124613.306000", "124613.308000", "124613.311000", "124613.313000", "124613.316000", "124613.318000", "124613.321000", "124613.323000", "124613.326000", "124613.328000", "124613.330000", "124613.333000", "124613.335000", "124613.338000", "124613.340000", "124613.343000", "124613.345000", "124613.354000", "124613.356000", "124613.359000", "124613.361000", "124613.364000", "124613.366000", "124613.369000", "124613.371000", "124613.373000", "124613.376000", "124613.378000", "124633.276000", "124633.279000", "124633.281000", "124633.284000", "124633.287000", "124633.289000", "124633.292000", "124633.294000", "124633.297000", "124633.299000", "124633.302000", "124633.304000", "124633.307000", "124633.309000", "124633.312000", "124633.314000", "124633.317000", "124633.325000", "124633.328000", "124633.331000", "124633.333000", "124633.335000", "124633.338000", "124633.340000", "124633.343000", "124633.345000", "124633.348000", "124633.351000", "124633.353000", "124633.356000", "124633.358000", "124633.360000", "124633.363000", "124653.276000", "124653.279000", "124653.281000", "124653.284000", "124653.287000", "124653.289000", "124653.291000", "124653.294000", "124653.297000", "124653.304000", "124653.306000", "124653.308000", "124653.311000", "124653.314000", "124653.316000", "124653.318000", "124653.321000", "124653.323000", "124653.326000", "124653.328000", "124653.331000", "124653.333000", "124653.336000", "124653.338000", "124653.341000", "124653.343000", "124653.346000", "124653.348000", "124653.351000", "124653.353000", "124653.356000", "124653.358000", "124713.276000", "124713.279000", "124713.281000", "124713.284000", "124713.286000", "124713.289000", "124713.291000", "124713.294000", "124713.296000", "124713.299000", "124713.301000", "124713.304000", "124713.306000", "124713.309000", "124713.311000", "124713.314000", "124713.316000", "124713.319000", "124713.322000", "124713.324000", "124713.327000", "124713.329000", "124713.331000", "124713.334000", "124713.336000", "124713.339000", "124713.341000", "124713.344000", "124713.346000", "124713.349000", "124713.351000", "124713.354000", "124713.356000", "124733.276000", "124733.279000", "124733.282000", "124733.284000", "124733.286000", "124733.289000", "124733.292000", "124733.294000", "124733.296000", "124733.299000", "124733.301000", "124733.304000", "124733.306000", "124733.309000", "124733.311000", "124733.314000", "124733.316000", "124733.319000", "124733.321000", "124733.324000", "124733.326000", "124733.329000", "124733.331000", "124733.333000", "124733.336000", "124733.338000", "124733.341000", "124733.343000", "124733.346000", "124733.348000", "124733.351000", "124733.353000", "124733.356000", "124753.278000", "124753.280000", "124753.283000", "124753.285000", "124753.288000", "124753.290000", "124753.293000", "124753.295000", "124753.298000", "124753.300000", "124753.303000", "124753.305000", "124753.308000", "124753.310000", "124753.313000", "124753.315000", "124753.317000", "124753.320000", "124753.322000", "124753.325000", "124753.327000", "124753.330000", "124753.332000", "124753.335000", "124753.337000", "124753.340000", "124753.342000", "124753.345000", "124753.347000", "124753.350000", "124753.352000", "124753.355000", "124753.357000", "124813.277000", "124813.280000", "124813.283000", "124813.285000", "124813.288000", "124813.290000", "124813.293000", "124813.295000", "124813.298000", "124813.300000", "124813.303000", "124813.305000", "124813.308000", "124813.310000", "124813.312000", "124813.315000", "124813.317000", "124813.320000", "124813.322000", "124813.325000", "124813.327000", "124813.330000", "124813.332000", "124813.335000", "124813.337000", "124813.340000", "124813.342000", "124813.345000", "124813.347000", "124813.350000", "124813.352000", "124813.355000", "124813.357000", "124833.276000", "124833.279000", "124833.282000", "124833.284000", "124833.287000", "124833.289000", "124833.292000", "124833.294000", "124833.297000", "124833.299000", "124833.302000", "124833.304000", "124833.307000", "124833.309000", "124833.312000", "124833.314000", "124833.317000", "124833.319000", "124833.322000", "124833.324000", "124833.327000", "124833.329000", "124833.332000", "124833.335000", "124833.337000", "124833.340000", "124833.342000", "124833.345000", "124833.347000", "124833.350000", "124833.352000", "124833.354000", "124853.277000", "124853.279000", "124853.282000", "124853.284000", "124853.287000", "124853.289000", "124853.292000", "124853.294000", "124853.297000", "124853.299000", "124853.302000", "124853.305000", "124853.308000", "124853.310000", "124853.313000", "124853.315000", "124853.318000", "124853.320000", "124853.322000", "124853.325000", "124853.337000", "124853.340000", "124853.342000", "124853.345000", "124853.347000", "124853.350000", "124853.352000", "124853.355000", "124853.357000", "124853.360000", "124853.362000", "124853.365000", "124853.367000", "124913.276000", "124913.279000", "124913.282000", "124913.284000", "124913.287000", "124913.289000", "124913.292000", "124913.294000", "124913.297000", "124913.299000", "124913.302000", "124913.304000", "124913.307000", "124913.313000", "124913.315000", "124913.318000", "124913.320000", "124913.323000", "124913.325000", "124913.328000", "124913.330000", "124913.333000", "124913.335000", "124913.337000", "124913.340000", "124913.342000", "124913.345000", "124913.347000", "124913.350000", "124913.352000", "124913.355000", "124913.357000", "124913.360000", "124933.276000", "124933.279000", "124933.281000", "124933.284000", "124933.286000", "124933.289000", "124933.291000", "124933.294000", "124933.296000", "124933.299000", "124933.301000", "124933.304000", "124933.307000", "124933.309000", "124933.311000", "124933.314000", "124933.316000", "124933.319000", "124933.321000", "124933.324000", "124933.326000", "124933.329000", "124933.331000", "124933.334000", "124933.336000", "124933.339000", "124933.341000", "124933.344000", "124933.346000", "124933.349000", "124933.351000", "124933.354000", "124933.356000", "124953.276000", "124953.279000", "124953.281000", "124953.284000", "124953.286000", "124953.289000", "124953.291000", "124953.294000", "124953.297000", "124953.299000", "124953.302000", "124953.304000", "124953.307000", "124953.309000", "124953.312000", "124953.314000", "124953.317000", "124953.319000", "124953.322000", "124953.324000", "124953.327000", "124953.329000", "124953.332000", "124953.334000", "124953.337000", "124953.339000", "124953.342000", "124953.344000", "124953.347000", "124953.349000", "124953.352000", "124953.354000", "124953.357000", "125013.277000", "125013.280000", "125013.283000", "125013.285000", "125013.288000", "125013.290000", "125013.293000", "125013.295000", "125013.298000", "125013.300000", "125013.303000", "125013.305000", "125013.308000", "125013.310000", "125013.313000", "125013.315000", "125013.317000", "125013.320000", "125013.323000", "125013.325000", "125013.327000", "125013.330000", "125013.332000", "125013.335000", "125013.337000", "125013.340000", "125013.342000", "125013.345000", "125013.347000", "125013.350000", "125013.352000", "125013.355000", "125033.276000", "125033.279000", "125033.281000", "125033.284000", "125033.287000", "125033.289000", "125033.292000", "125033.294000", "125033.297000", "125033.299000", "125033.302000", "125033.304000", "125033.307000", "125033.309000", "125033.312000", "125033.314000", "125033.317000", "125033.319000", "125033.322000", "125033.324000", "125033.327000", "125033.329000", "125033.332000", "125033.334000", "125033.337000", "125033.339000", "125033.342000", "125033.346000", "125033.349000", "125033.352000", "125033.354000", "125033.357000", "125033.359000", "125053.276000", "125053.279000", "125053.282000", "125053.284000", "125053.287000", "125053.289000", "125053.292000", "125053.294000", "125053.297000", "125053.299000", "125053.302000", "125053.304000", "125053.307000", "125053.309000", "125053.312000", "125053.314000", "125053.317000", "125053.319000", "125053.322000", "125053.324000", "125053.327000", "125053.329000", "125053.332000", "125053.334000", "125053.337000", "125053.339000", "125053.342000", "125053.344000", "125053.347000", "125053.349000", "125053.352000", "125053.354000", "125053.357000", "125103.362000", "125103.365000", "125103.367000", "125103.370000", "125103.373000", "125103.375000", "125103.378000", "125103.380000", "125103.383000", "125103.385000", "125103.388000", "125103.396000", "125103.398000", "125103.400000", "125103.403000", "125103.405000", "125103.408000"], "InstanceCreationTime": ["124613.290000", "124613.293000", "124613.296000", "124613.298000", "124613.301000", "124613.303000", "124613.306000", "124613.308000", "124613.311000", "124613.313000", "124613.316000", "124613.318000", "124613.321000", "124613.323000", "124613.326000", "124613.328000", "124613.330000", "124613.333000", "124613.335000", "124613.338000", "124613.340000", "124613.343000", "124613.345000", "124613.354000", "124613.356000", "124613.359000", "124613.361000", "124613.364000", "124613.366000", "124613.369000", "124613.371000", "124613.373000", "124613.376000", "124613.378000", "124633.276000", "124633.279000", "124633.281000", "124633.284000", "124633.287000", "124633.289000", "124633.292000", "124633.294000", "124633.297000", "124633.299000", "124633.302000", "124633.304000", "124633.307000", "124633.309000", "124633.312000", "124633.314000", "124633.317000", "124633.325000", "124633.328000", "124633.331000", "124633.333000", "124633.335000", "124633.338000", "124633.340000", "124633.343000", "124633.345000", "124633.348000", "124633.351000", "124633.353000", "124633.356000", "124633.358000", "124633.360000", "124633.363000", "124653.276000", "124653.279000", "124653.281000", "124653.284000", "124653.287000", "124653.289000", "124653.291000", "124653.294000", "124653.297000", "124653.304000", "124653.306000", "124653.308000", "124653.311000", "124653.314000", "124653.316000", "124653.318000", "124653.321000", "124653.323000", "124653.326000", "124653.328000", "124653.331000", "124653.333000", "124653.336000", "124653.338000", "124653.341000", "124653.343000", "124653.346000", "124653.348000", "124653.351000", "124653.353000", "124653.356000", "124653.358000", "124713.276000", "124713.279000", "124713.281000", "124713.284000", "124713.286000", "124713.289000", "124713.291000", "124713.294000", "124713.296000", "124713.299000", "124713.301000", "124713.304000", "124713.306000", "124713.309000", "124713.311000", "124713.314000", "124713.316000", "124713.319000", "124713.322000", "124713.324000", "124713.327000", "124713.329000", "124713.331000", "124713.334000", "124713.336000", "124713.339000", "124713.341000", "124713.344000", "124713.346000", "124713.349000", "124713.351000", "124713.354000", "124713.356000", "124733.276000", "124733.279000", "124733.282000", "124733.284000", "124733.286000", "124733.289000", "124733.292000", "124733.294000", "124733.296000", "124733.299000", "124733.301000", "124733.304000", "124733.306000", "124733.309000", "124733.311000", "124733.314000", "124733.316000", "124733.319000", "124733.321000", "124733.324000", "124733.326000", "124733.329000", "124733.331000", "124733.333000", "124733.336000", "124733.338000", "124733.341000", "124733.343000", "124733.346000", "124733.348000", "124733.351000", "124733.353000", "124733.356000", "124753.278000", "124753.280000", "124753.283000", "124753.285000", "124753.288000", "124753.290000", "124753.293000", "124753.295000", "124753.298000", "124753.300000", "124753.303000", "124753.305000", "124753.308000", "124753.310000", "124753.313000", "124753.315000", "124753.317000", "124753.320000", "124753.322000", "124753.325000", "124753.327000", "124753.330000", "124753.332000", "124753.335000", "124753.337000", "124753.340000", "124753.342000", "124753.345000", "124753.347000", "124753.350000", "124753.352000", "124753.355000", "124753.357000", "124813.277000", "124813.280000", "124813.283000", "124813.285000", "124813.288000", "124813.290000", "124813.293000", "124813.295000", "124813.298000", "124813.300000", "124813.303000", "124813.305000", "124813.308000", "124813.310000", "124813.312000", "124813.315000", "124813.317000", "124813.320000", "124813.322000", "124813.325000", "124813.327000", "124813.330000", "124813.332000", "124813.335000", "124813.337000", "124813.340000", "124813.342000", "124813.345000", "124813.347000", "124813.350000", "124813.352000", "124813.355000", "124813.357000", "124833.276000", "124833.279000", "124833.282000", "124833.284000", "124833.287000", "124833.289000", "124833.292000", "124833.294000", "124833.297000", "124833.299000", "124833.302000", "124833.304000", "124833.307000", "124833.309000", "124833.312000", "124833.314000", "124833.317000", "124833.319000", "124833.322000", "124833.324000", "124833.327000", "124833.329000", "124833.332000", "124833.335000", "124833.337000", "124833.340000", "124833.342000", "124833.345000", "124833.347000", "124833.350000", "124833.352000", "124833.354000", "124853.277000", "124853.279000", "124853.282000", "124853.284000", "124853.287000", "124853.289000", "124853.292000", "124853.294000", "124853.297000", "124853.299000", "124853.302000", "124853.305000", "124853.308000", "124853.310000", "124853.313000", "124853.315000", "124853.318000", "124853.320000", "124853.322000", "124853.325000", "124853.337000", "124853.340000", "124853.342000", "124853.345000", "124853.347000", "124853.350000", "124853.352000", "124853.355000", "124853.357000", "124853.360000", "124853.362000", "124853.365000", "124853.367000", "124913.276000", "124913.279000", "124913.282000", "124913.284000", "124913.287000", "124913.289000", "124913.292000", "124913.294000", "124913.297000", "124913.299000", "124913.302000", "124913.304000", "124913.307000", "124913.313000", "124913.315000", "124913.318000", "124913.320000", "124913.323000", "124913.325000", "124913.328000", "124913.330000", "124913.333000", "124913.335000", "1249