{"AcquisitionMatrixPE": 64, "AcquisitionNumber": 1, "AcquisitionTime": "12:34:6.657500", "BandwidthPerPixelPhaseEncode": 28.935, "BaseResolution": 64, "BodyPartExamined": "BRAIN", "CoilCombinationMethod": "Sum of Squares", "ConsistencyInfo": "N4_VE11E_LATEST_20181129", "ConversionSoftware": "dcm2niix", "ConversionSoftwareVersion": "v1.0.20230411", "DerivedVendorReportedEchoSpacing": 0.000540003, "DeviceSerialNumber": "166182", "DwellTime": 3.4e-06, "EchoTime": 0.032, "EchoTrainLength": 64, "EffectiveEchoSpacing": 0.000540003, "FlipAngle": 40, "HeudiconvVersion": "0.13.1", "ImageOrientationPatientDICOM": [0.99986, -0.0129039, 0.0106228, 0.0129144, 0.999916, -0.000915586], "ImageOrientationText": "Tra>Sag(0.6)>Cor(-0.1)", "ImageType": ["ORIGINAL", "PRIMARY", "M", "ND", "NORM", "MOSAIC"], "ImagingFrequency": 123.25588, "InPlanePhaseEncodingDirectionDICOM": "COL", "InstitutionAddress": "PEARSE STREET .,City,District,IE,D2", "InstitutionName": "TCIN", "InstitutionalDepartmentName": "MRI", "MRAcquisitionType": "2D", "MagneticFieldStrength": 3, "Manufacturer": "Siemens", "ManufacturersModelName": "Prisma", "Modality": "MR", "MultibandAccelerationFactor": 4, "NonlinearGradientCorrection": false, "PartialFourier": 1, "PatientPosition": "HFS", "PercentPhaseFOV": 100, "PercentSampling": 100, "PhaseEncodingDirection": "j-", "PhaseEncodingSteps": 64, "PhaseResolution": 1, "PixelBandwidth": 2300, "ProcedureStepDescription": "Rhodri^Head BOLD", "ProtocolName": "cmrr_mbep2d_Pictures_AP_RDS", "PulseSequenceDetails": "%SiemensSeq%\\ep2d_bold", "ReceiveCoilActiveElements": "HC2,4,6,7;SC", "ReceiveCoilName": "SpecialPurpose_4", "ReconMatrixPE": 64, "RefLinesPE": 12, "RepetitionTime": 0.61, "SAR": 0.298031, "ScanOptions": "FS", "ScanningSequence": "EP", "SequenceName": "*epfid2d1_64", "SequenceVariant": "SK", "SeriesDescription": "cmrr_mbep2d_Pictures_AP_RDS", "SeriesNumber": 11, "ShimSetting": [-3645, -7511, 3699, 1048, 97, 141, 352, 170], "SliceThickness": 3, "SliceTiming": [0.2625, 0, 0.3275, 0.065, 0.3925, 0.13, 0.4575, 0.1975, 0.525, 0.2625, 0, 0.3275, 0.065, 0.3925, 0.13, 0.4575, 0.1975, 0.525, 0.2625, 0, 0.3275, 0.065, 0.3925, 0.13, 0.4575, 0.1975, 0.525, 0.2625, 0, 0.3275, 0.065, 0.3925, 0.13, 0.4575, 0.1975, 0.525], "SoftwareVersions": "syngo MR E11", "SpacingBetweenSlices": 3.3, "StationName": "AWP166182", "TaskName": "pictures", "TotalReadoutTime": 0.0340202, "TxRefAmp": 243.562, "dcmmeta_affine": [[-2.9995808601379395, 0.03874305635690689, 0.03501325100660324, 92.72010040283203], [0.03871171176433563, 2.999748468399048, -0.0034737277310341597, -94.96770477294922], [0.0318683423101902, 0.002746758982539177, 3.2998123168945312, -108.21466064453125], [0.0, 0.0, 0.0, 1.0]], "dcmmeta_reorient_transform": [[0.0, -1.0, 0.0, 63.0], [1.0, 0.0, 0.0, 0.0], [0.0, 0.0, 1.0, 0.0], [0.0, 0.0, 0.0, 1.0]], "dcmmeta_shape": [64, 64, 36, 510], "dcmmeta_slice_dim": 2, "dcmmeta_version": 0.6, "global": {"const": {"AcquisitionMatrix": [64, 0, 0, 64], "AngioFlag": "N", "BitsAllocated": 16, "BitsStored": 12, "BodyPartExamined": "BRAIN", "Columns": 384, "EchoNumbers": 1, "EchoTime": 32.0, "EchoTrainLength": 64, "FlipAngle": 40.0, "HighBit": 11, "ImageOrientationPatient": [0.99986031313992, -0.012903903556, 0.01062278121616, 0.01291435208075, 0.99991618709371, -0.0009155863168], "ImagePositionPatient": [-581.29275101514, -567.78234730517, -112.70107021418], "ImageType": ["ORIGINAL", "PRIMARY", "M", "ND", "NORM", "MOSAIC"], "ImagedNucleus": "1H", "ImagingFrequency": 123.25588, "InPlanePhaseEncodingDirection": "COL", "MRAcquisitionType": "2D", "MagneticFieldStrength": 3.0, "Manufacturer": "SIEMENS", "ManufacturerModelName": "Prisma", "Modality": "MR", "NumberOfAverages": 1.0, "NumberOfPhaseEncodingSteps": 64, "PercentPhaseFieldOfView": 100.0, "PercentSampling": 100.0, "PerformedProcedureStepStartTime": "115849.197000", "PhotometricInterpretation": "MONOCHROME2", "PixelBandwidth": 2300.0, "PixelRepresentation": 0, "PixelSpacing": [3.0, 3.0], "ProtocolName": "cmrr_mbep2d_Pictures_AP_RDS", "RepetitionTime": 610.0, "Rows": 384, "SAR": 0.29803057470566, "SamplesPerPixel": 1, "ScanOptions": "FS", "ScanningSequence": "EP", "SequenceName": "*epfid2d1_64", "SequenceVariant": "SK", "SeriesDescription": "cmrr_mbep2d_Pictures_AP_RDS", "SeriesNumber": 11, "SeriesTime": "123433.451000", "SliceLocation": -107.1247767014, "SliceThickness": 3.0, "SmallestImagePixelValue": 0, "SoftwareVersions": "syngo MR E11", "SpacingBetweenSlices": 3.3000000061528, "SpecificCharacterSet": "ISO_IR 100", "StudyID": "1", "StudyTime": "115849.008000", "TransmitCoilName": "Body", "VariableFlipAngleFlag": "N", "WindowCenterWidthExplanation": "Algo1"}, "slices": {}}, "time": {"samples": {"AcquisitionNumber": [1, 2, 3, 4, 5, 6, 7, 8, 9, 10, 11, 12, 13, 14, 15, 16, 17, 18, 19, 20, 21, 22, 23, 24, 25, 26, 27, 28, 29, 30, 31, 32, 33, 34, 35, 36, 37, 38, 39, 40, 41, 42, 43, 44, 45, 46, 47, 48, 49, 50, 51, 52, 53, 54, 55, 56, 57, 58, 59, 60, 61, 62, 63, 64, 65, 66, 67, 68, 69, 70, 71, 72, 73, 74, 75, 76, 77, 78, 79, 80, 81, 82, 83, 84, 85, 86, 87, 88, 89, 90, 91, 92, 93, 94, 95, 96, 97, 98, 99, 100, 101, 102, 103, 104, 105, 106, 107, 108, 109, 110, 111, 112, 113, 114, 115, 116, 117, 118, 119, 120, 121, 122, 123, 124, 125, 126, 127, 128, 129, 130, 131, 132, 133, 134, 135, 136, 137, 138, 139, 140, 141, 142, 143, 144, 145, 146, 147, 148, 149, 150, 151, 152, 153, 154, 155, 156, 157, 158, 159, 160, 161, 162, 163, 164, 165, 166, 167, 168, 169, 170, 171, 172, 173, 174, 175, 176, 177, 178, 179, 180, 181, 182, 183, 184, 185, 186, 187, 188, 189, 190, 191, 192, 193, 194, 195, 196, 197, 198, 199, 200, 201, 202, 203, 204, 205, 206, 207, 208, 209, 210, 211, 212, 213, 214, 215, 216, 217, 218, 219, 220, 221, 222, 223, 224, 225, 226, 227, 228, 229, 230, 231, 232, 233, 234, 235, 236, 237, 238, 239, 240, 241, 242, 243, 244, 245, 246, 247, 248, 249, 250, 251, 252, 253, 254, 255, 256, 257, 258, 259, 260, 261, 262, 263, 264, 265, 266, 267, 268, 269, 270, 271, 272, 273, 274, 275, 276, 277, 278, 279, 280, 281, 282, 283, 284, 285, 286, 287, 288, 289, 290, 291, 292, 293, 294, 295, 296, 297, 298, 299, 300, 301, 302, 303, 304, 305, 306, 307, 308, 309, 310, 311, 312, 313, 314, 315, 316, 317, 318, 319, 320, 321, 322, 323, 324, 325, 326, 327, 328, 329, 330, 331, 332, 333, 334, 335, 336, 337, 338, 339, 340, 341, 342, 343, 344, 345, 346, 347, 348, 349, 350, 351, 352, 353, 354, 355, 356, 357, 358, 359, 360, 361, 362, 363, 364, 365, 366, 367, 368, 369, 370, 371, 372, 373, 374, 375, 376, 377, 378, 379, 380, 381, 382, 383, 384, 385, 386, 387, 388, 389, 390, 391, 392, 393, 394, 395, 396, 397, 398, 399, 400, 401, 402, 403, 404, 405, 406, 407, 408, 409, 410, 411, 412, 413, 414, 415, 416, 417, 418, 419, 420, 421, 422, 423, 424, 425, 426, 427, 428, 429, 430, 431, 432, 433, 434, 435, 436, 437, 438, 439, 440, 441, 442, 443, 444, 445, 446, 447, 448, 449, 450, 451, 452, 453, 454, 455, 456, 457, 458, 459, 460, 461, 462, 463, 464, 465, 466, 467, 468, 469, 470, 471, 472, 473, 474, 475, 476, 477, 478, 479, 480, 481, 482, 483, 484, 485, 486, 487, 488, 489, 490, 491, 492, 493, 494, 495, 496, 497, 498, 499, 500, 501, 502, 503, 504, 505, 506, 507, 508, 509, 510], "AcquisitionTime": ["123406.657500", "123407.267500", "123407.877500", "123408.487500", "123409.097500", "123409.707500", "123410.317500", "123410.927500", "123411.537500", "123412.147500", "123412.757500", "123413.367500", "123413.977500", "123414.587500", "123415.197500", "123415.807500", "123416.417500", "123417.027500", "123417.637500", "123418.247500", "123418.857500", "123419.467500", "123420.077500", "123420.687500", "123421.297500", "123421.907500", "123422.517500", "123423.127500", "123423.737500", "123424.347500", "123424.957500", "123425.567500", "123426.177500", "123426.787500", "123427.397500", "123428.007500", "123428.617500", "123429.227500", "123429.837500", "123430.447500", "123431.057500", "123431.667500", "123432.277500", "123432.887500", "123433.497500", "123434.107500", "123434.717500", "123435.327500", "123435.937500", "123436.547500", "123437.157500", "123437.767500", "123438.377500", "123438.987500", "123439.597500", "123440.207500", "123440.817500", "123441.427500", "123442.037500", "123442.647500", "123443.257500", "123443.867500", "123444.477500", "123445.087500", "123445.697500", "123446.307500", "123446.917500", "123447.527500", "123448.137500", "123448.747500", "123449.357500", "123449.967500", "123450.577500", "123451.187500", "123451.797500", "123452.407500", "123453.017500", "123453.627500", "123454.237500", "123454.847500", "123455.457500", "123456.067500", "123456.677500", "123457.287500", "123457.897500", "123458.507500", "123459.117500", "123459.727500", "123500.337500", "123500.947500", "123501.557500", "123502.167500", "123502.777500", "123503.387500", "123503.997500", "123504.607500", "123505.217500", "123505.827500", "123506.437500", "123507.047500", "123507.657500", "123508.267500", "123508.877500", "123509.487500", "123510.097500", "123510.707500", "123511.317500", "123511.927500", "123512.537500", "123513.147500", "123513.757500", "123514.367500", "123514.977500", "123515.587500", "123516.197500", "123516.807500", "123517.417500", "123518.027500", "123518.637500", "123519.247500", "123519.857500", "123520.467500", "123521.077500", "123521.687500", "123522.297500", "123522.907500", "123523.517500", "123524.127500", "123524.737500", "123525.347500", "123525.957500", "123526.567500", "123527.177500", "123527.787500", "123528.397500", "123529.007500", "123529.617500", "123530.227500", "123530.837500", "123531.447500", "123532.057500", "123532.667500", "123533.277500", "123533.887500", "123534.497500", "123535.107500", "123535.717500", "123536.327500", "123536.937500", "123537.547500", "123538.157500", "123538.767500", "123539.377500", "123539.987500", "123540.597500", "123541.207500", "123541.817500", "123542.427500", "123543.037500", "123543.647500", "123544.257500", "123544.867500", "123545.477500", "123546.087500", "123546.697500", "123547.307500", "123547.917500", "123548.527500", "123549.137500", "123549.747500", "123550.357500", "123550.967500", "123551.577500", "123552.187500", "123552.797500", "123553.407500", "123554.017500", "123554.627500", "123555.237500", "123555.847500", "123556.457500", "123557.067500", "123557.677500", "123558.287500", "123558.897500", "123559.507500", "123600.117500", "123600.727500", "123601.337500", "123601.947500", "123602.557500", "123603.167500", "123603.777500", "123604.387500", "123604.997500", "123605.607500", "123606.217500", "123606.827500", "123607.437500", "123608.047500", "123608.657500", "123609.267500", "123609.877500", "123610.487500", "123611.097500", "123611.707500", "123612.317500", "123612.927500", "123613.537500", "123614.147500", "123614.757500", "123615.367500", "123615.977500", "123616.587500", "123617.197500", "123617.807500", "123618.417500", "123619.027500", "123619.637500", "123620.247500", "123620.857500", "123621.467500", "123622.077500", "123622.687500", "123623.297500", "123623.907500", "123624.517500", "123625.127500", "123625.737500", "123626.347500", "123626.957500", "123627.567500", "123628.177500", "123628.787500", "123629.397500", "123630.007500", "123630.617500", "123631.227500", "123631.837500", "123632.447500", "123633.057500", "123633.667500", "123634.277500", "123634.887500", "123635.497500", "123636.107500", "123636.717500", "123637.327500", "123637.937500", "123638.547500", "123639.157500", "123639.767500", "123640.377500", "123640.987500", "123641.597500", "123642.207500", "123642.817500", "123643.427500", "123644.037500", "123644.647500", "123645.257500", "123645.867500", "123646.477500", "123647.087500", "123647.697500", "123648.307500", "123648.917500", "123649.527500", "123650.137500", "123650.747500", "123651.357500", "123651.967500", "123652.577500", "123653.187500", "123653.797500", "123654.407500", "123655.017500", "123655.627500", "123656.237500", "123656.847500", "123657.457500", "123658.067500", "123658.677500", "123659.287500", "123659.897500", "123700.507500", "123701.117500", "123701.727500", "123702.337500", "123702.947500", "123703.557500", "123704.167500", "123704.777500", "123705.387500", "123705.997500", "123706.607500", "123707.217500", "123707.827500", "123708.437500", "123709.047500", "123709.657500", "123710.267500", "123710.877500", "123711.487500", "123712.097500", "123712.707500", "123713.317500", "123713.927500", "123714.537500", "123715.147500", "123715.757500", "123716.367500", "123716.977500", "123717.587500", "123718.197500", "123718.807500", "123719.417500", "123720.027500", "123720.637500", "123721.247500", "123721.857500", "123722.467500", "123723.077500", "123723.687500", "123724.297500", "123724.907500", "123725.517500", "123726.127500", "123726.737500", "123727.347500", "123727.957500", "123728.567500", "123729.177500", "123729.787500", "123730.397500", "123731.007500", "123731.617500", "123732.227500", "123732.837500", "123733.447500", "123734.057500", "123734.667500", "123735.277500", "123735.887500", "123736.497500", "123737.107500", "123737.717500", "123738.327500", "123738.937500", "123739.547500", "123740.157500", "123740.767500", "123741.377500", "123741.987500", "123742.597500", "123743.207500", "123743.817500", "123744.427500", "123745.037500", "123745.647500", "123746.257500", "123746.867500", "123747.477500", "123748.087500", "123748.697500", "123749.307500", "123749.917500", "123750.527500", "123751.137500", "123751.747500", "123752.357500", "123752.967500", "123753.577500", "123754.187500", "123754.797500", "123755.407500", "123756.017500", "123756.627500", "123757.237500", "123757.847500", "123758.457500", "123759.067500", "123759.677500", "123800.287500", "123800.897500", "123801.507500", "123802.117500", "123802.727500", "123803.337500", "123803.947500", "123804.557500", "123805.167500", "123805.777500", "123806.387500", "123806.997500", "123807.607500", "123808.217500", "123808.827500", "123809.437500", "123810.047500", "123810.657500", "123811.267500", "123811.877500", "123812.487500", "123813.097500", "123813.707500", "123814.317500", "123814.927500", "123815.537500", "123816.147500", "123816.757500", "123817.367500", "123817.977500", "123818.587500", "123819.197500", "123819.807500", "123820.417500", "123821.027500", "123821.637500", "123822.247500", "123822.857500", "123823.467500", "123824.077500", "123824.687500", "123825.297500", "123825.907500", "123826.517500", "123827.127500", "123827.737500", "123828.347500", "123828.957500", "123829.567500", "123830.177500", "123830.787500", "123831.397500", "123832.007500", "123832.617500", "123833.227500", "123833.837500", "123834.447500", "123835.057500", "123835.667500", "123836.277500", "123836.887500", "123837.497500", "123838.107500", "123838.717500", "123839.327500", "123839.937500", "123840.547500", "123841.157500", "123841.767500", "123842.377500", "123842.987500", "123843.597500", "123844.207500", "123844.817500", "123845.427500", "123846.037500", "123846.647500", "123847.257500", "123847.867500", "123848.477500", "123849.087500", "123849.697500", "123850.307500", "123850.917500", "123851.527500", "123852.137500", "123852.747500", "123853.357500", "123853.967500", "123854.577500", "123855.187500", "123855.797500", "123856.407500", "123857.017500", "123857.627500", "123858.237500", "123858.847500", "123859.457500", "123900.067500", "123900.677500", "123901.287500", "123901.897500", "123902.507500", "123903.117500", "123903.727500", "123904.337500", "123904.947500", "123905.557500", "123906.167500", "123906.777500", "123907.387500", "123907.997500", "123908.607500", "123909.217500", "123909.827500", "123910.437500", "123911.047500", "123911.657500", "123912.267500", "123912.877500", "123913.487500", "123914.097500", "123914.707500", "123915.317500", "123915.927500", "123916.537500", "123917.147500"], "ContentTime": ["123433.455000", "123433.458000", "123433.461000", "123433.463000", "123433.465000", "123433.468000", "123433.470000", "123433.473000", "123433.475000", "123433.478000", "123433.480000", "123433.483000", "123433.485000", "123433.487000", "123433.490000", "123433.492000", "123433.497000", "123433.500000", "123433.502000", "123433.505000", "123433.507000", "123433.510000", "123433.512000", "123433.514000", "123433.517000", "123433.519000", "123433.522000", "123433.524000", "123433.527000", "123433.529000", "123433.532000", "123433.534000", "123433.536000", "123433.539000", "123433.541000", "123433.544000", "123433.546000", "123433.549000", "123433.551000", "123433.553000", "123433.556000", "123433.558000", "123433.561000", "123453.450000", "123453.453000", "123453.455000", "123453.458000", "123453.460000", "123453.463000", "123453.465000", "123453.468000", "123453.476000", "123453.478000", "123453.481000", "123453.483000", "123453.486000", "123453.498000", "123453.501000", "123453.503000", "123453.505000", "123453.508000", "123453.510000", "123453.513000", "123453.515000", "123453.518000", "123453.520000", "123453.523000", "123453.525000", "123453.528000", "123453.530000", "123453.532000", "123453.535000", "123453.537000", "123453.540000", "123453.542000", "123453.545000", "123513.450000", "123513.453000", "123513.455000", "123513.458000", "123513.460000", "123513.463000", "123513.465000", "123513.468000", "123513.470000", "123513.473000", "123513.475000", "123513.478000", "123513.481000", "123513.483000", "123513.486000", "123513.488000", "123513.491000", "123513.493000", "123513.496000", "123513.498000", "123513.500000", "123513.503000", "123513.505000", "123513.508000", "123513.510000", "123513.513000", "123513.515000", "123513.518000", "123513.520000", "123513.522000", "123513.525000", "123513.527000", "123533.450000", "123533.454000", "123533.456000", "123533.459000", "123533.461000", "123533.464000", "123533.466000", "123533.469000", "123533.471000", "123533.474000", "123533.476000", "123533.479000", "123533.481000", "123533.484000", "123533.486000", "123533.489000", "123533.491000", "123533.493000", "123533.496000", "123533.498000", "123533.501000", "123533.503000", "123533.506000", "123533.508000", "123533.511000", "123533.513000", "123533.516000", "123533.518000", "123533.521000", "123533.523000", "123533.525000", "123533.528000", "123533.530000", "123553.450000", "123553.453000", "123553.456000", "123553.458000", "123553.460000", "123553.463000", "123553.465000", "123553.468000", "123553.470000", "123553.473000", "123553.475000", "123553.478000", "123553.480000", "123553.483000", "123553.485000", "123553.488000", "123553.490000", "123553.493000", "123553.495000", "123553.497000", "123553.500000", "123553.502000", "123553.505000", "123553.507000", "123553.510000", "123553.513000", "123553.515000", "123553.517000", "123553.520000", "123553.522000", "123553.525000", "123553.527000", "123553.530000", "123613.451000", "123613.454000", "123613.457000", "123613.459000", "123613.462000", "123613.464000", "123613.466000", "123613.469000", "123613.471000", "123613.474000", "123613.476000", "123613.479000", "123613.481000", "123613.484000", "123613.486000", "123613.489000", "123613.491000", "123613.493000", "123613.496000", "123613.498000", "123613.501000", "123613.503000", "123613.505000", "123613.508000", "123613.511000", "123613.513000", "123613.515000", "123613.518000", "123613.520000", "123613.523000", "123613.525000", "123613.528000", "123613.530000", "123633.451000", "123633.454000", "123633.456000", "123633.459000", "123633.461000", "123633.464000", "123633.466000", "123633.469000", "123633.474000", "123633.476000", "123633.478000", "123633.481000", "123633.483000", "123633.486000", "123633.488000", "123633.491000", "123633.493000", "123633.496000", "123633.498000", "123633.500000", "123633.503000", "123633.505000", "123633.508000", "123633.510000", "123633.513000", "123633.515000", "123633.518000", "123633.520000", "123633.523000", "123633.526000", "123633.528000", "123633.530000", "123633.533000", "123653.450000", "123653.453000", "123653.456000", "123653.458000", "123653.461000", "123653.463000", "123653.466000", "123653.468000", "123653.470000", "123653.473000", "123653.475000", "123653.478000", "123653.480000", "123653.483000", "123653.485000", "123653.488000", "123653.490000", "123653.493000", "123653.495000", "123653.498000", "123653.500000", "123653.503000", "123653.505000", "123653.508000", "123653.510000", "123653.513000", "123653.515000", "123653.518000", "123653.520000", "123653.523000", "123653.526000", "123653.528000", "123713.450000", "123713.453000", "123713.455000", "123713.458000", "123713.460000", "123713.463000", "123713.465000", "123713.468000", "123713.470000", "123713.473000", "123713.475000", "123713.478000", "123713.480000", "123713.483000", "123713.485000", "123713.488000", "123713.490000", "123713.494000", "123713.496000", "123713.499000", "123713.501000", "123713.504000", "123713.506000", "123713.509000", "123713.511000", "123713.514000", "123713.516000", "123713.519000", "123713.521000", "123713.524000", "123713.526000", "123713.529000", "123713.531000", "123733.450000", "123733.453000", "123733.456000", "123733.458000", "123733.461000", "123733.463000", "123733.466000", "123733.468000", "123733.470000", "123733.473000", "123733.475000", "123733.478000", "123733.480000", "123733.483000", "123733.486000", "123733.488000", "123733.505000", "123733.507000", "123733.510000", "123733.512000", "123733.515000", "123733.517000", "123733.520000", "123733.522000", "123733.525000", "123733.527000", "123733.530000", "123733.532000", "123733.534000", "123733.537000", "123733.540000", "123733.542000", "123733.544000", "123753.450000", "123753.453000", "123753.456000", "123753.458000", "123753.461000", "123753.463000", "123753.466000", "123753.468000", "123753.471000", "123753.473000", "123753.476000", "123753.478000", "123753.480000", "123753.483000", "123753.485000", "123753.488000", "123753.490000", "123753.493000", "123753.495000", "123753.498000", "123753.500000", "123753.503000", "123753.505000", "123753.508000", "123753.510000", "123753.513000", "123753.515000", "123753.517000", "123753.520000", "123753.522000", "123753.525000", "123753.527000", "123753.530000", "123813.450000", "123813.453000", "123813.455000", "123813.458000", "123813.461000", "123813.463000", "123813.466000", "123813.468000", "123813.471000", "123813.473000", "123813.475000", "123813.478000", "123813.480000", "123813.483000", "123813.485000", "123813.488000", "123813.490000", "123813.493000", "123813.495000", "123813.498000", "123813.500000", "123813.503000", "123813.505000", "123813.508000", "123813.510000", "123813.513000", "123813.515000", "123813.518000", "123813.520000", "123813.523000", "123813.525000", "123813.528000", "123813.530000", "123833.451000", "123833.454000", "123833.457000", "123833.459000", "123833.462000", "123833.464000", "123833.467000", "123833.469000", "123833.472000", "123833.474000", "123833.477000", "123833.479000", "123833.482000", "123833.484000", "123833.486000", "123833.489000", "123833.492000", "123833.494000", "123833.496000", "123833.499000", "123833.501000", "123833.504000", "123833.506000", "123833.509000", "123833.511000", "123833.514000", "123833.516000", "123833.519000", "123833.521000", "123833.524000", "123833.526000", "123833.529000", "123853.451000", "123853.454000", "123853.457000", "123853.459000", "123853.461000", "123853.464000", "123853.466000", "123853.469000", "123853.471000", "123853.474000", "123853.476000", "123853.479000", "123853.481000", "123853.484000", "123853.486000", "123853.489000", "123853.491000", "123853.493000", "123853.496000", "123853.498000", "123853.501000", "123853.503000", "123853.506000", "123853.508000", "123853.511000", "123853.513000", "123853.516000", "123853.518000", "123853.520000", "123853.523000", "123853.525000", "123853.528000", "123853.531000", "123913.450000", "123913.453000", "123913.455000", "123913.458000", "123913.460000", "123913.463000", "123913.465000", "123913.468000", "123913.470000", "123913.472000", "123913.475000", "123913.477000", "123913.480000", "123913.482000", "123913.485000", "123913.487000", "123913.490000", "123913.492000", "123913.495000", "123913.497000", "123913.500000", "123913.502000", "123913.505000", "123913.507000", "123913.510000", "123913.512000", "123913.515000", "123913.517000", "123913.519000", "123913.522000", "123913.524000", "123913.527000", "123913.529000", "123918.055000", "123918.058000", "123918.060000", "123918.063000", "123918.065000", "123918.068000", "123918.070000", "123918.073000"], "InstanceCreationTime": ["123433.455000", "123433.458000", "123433.461000", "123433.463000", "123433.465000", "123433.468000", "123433.470000", "123433.473000", "123433.475000", "123433.478000", "123433.480000", "123433.483000", "123433.485000", "123433.487000", "123433.490000", "123433.492000", "123433.497000", "123433.500000", "123433.502000", "123433.505000", "123433.507000", "123433.510000", "123433.512000", "123433.514000", "123433.517000", "123433.519000", "123433.522000", "123433.524000", "123433.527000", "123433.529000", "123433.532000", "123433.534000", "123433.536000", "123433.539000", "123433.541000", "123433.544000", "123433.546000", "123433.549000", "123433.551000", "123433.553000", "123433.556000", "123433.558000", "123433.561000", "123453.450000", "123453.453000", "123453.455000", "123453.458000", "123453.460000", "123453.463000", "123453.465000", "123453.468000", "123453.476000", "123453.478000", "123453.481000", "123453.483000", "123453.486000", "123453.498000", "123453.501000", "123453.503000", "123453.505000", "123453.508000", "123453.510000", "123453.513000", "123453.515000", "123453.518000", "123453.520000", "123453.523000", "123453.525000", "123453.528000", "123453.530000", "123453.532000", "123453.535000", "123453.537000", "123453.540000", "123453.542000", "123453.545000", "123513.450000", "123513.453000", "123513.455000", "123513.458000", "123513.460000", "123513.463000", "123513.465000", "123513.468000", "123513.470000", "123513.473000", "123513.475000", "123513.478000", "123513.481000", "123513.483000", "123513.486000", "123513.488000", "123513.491000", "123513.493000", "123513.496000", "123513.498000", "123513.500000", "123513.503000", "123513.505000", "123513.508000", "123513.510000", "123513.513000", "123513.515000", "123513.518000", "123513.520000", "123513.522000", "123513.525000", "123513.527000", "123533.450000", "123533.454000", "123533.456000", "123533.459000", "123533.461000", "123533.464000", "123533.466000", "123533.469000", "123533.471000", "123533.474000", "123533.476000", "123533.479000", "123533.481000", "123533.484000", "123533.486000", "123533.489000", "123533.491000", "123533.493000", "123533.496000", "123533.498000", "123533.501000", "123533.503000", "123533.506000", "123533.508000", "123533.511000", "123533.513000", "123533.516000", "123533.518000", "123533.521000", "123533.523000", "123533.525000", "123533.528000", "123533.530000", "123553.450000", "123553.453000", "123553.456000", "123553.458000", "123553.460000", "123553.463000", "123553.465000", "123553.468000", "123553.470000", "123553.473000", "123553.475000", "123553.478000", "123553.480000", "123553.483000", "123553.485000", "123553.488000", "123553.490000", "123553.493000", "123553.495000", "123553.497000", "123553.500000", "123553.502000", "123553.505000", "123553.507000", "123553.510000", "123553.513000", "123553.515000", "123553.517000", "123553.520000", "123553.522000", "123553.525000", "123553.527000", "123553.530000", "123613.451000", "123613.454000", "123613.457000", "123613.459000", "123613.462000", "123613.464000", "123613.466000", "123613.469000", "123613.471000", "123613.474000", "123613.476000", "123613.479000", "123613.481000", "123613.484000", "123613.486000", "123613.489000", "123613.491000", "123613.493000", "123613.496000", "123613.498000", "123613.501000", "123613.503000", "123613.505000", "123613.508000", "123613.511000", "123613.513000", "123613.515000", "123613.518000", "123613.520000", "123613.523000", "123613.525000", "123613.528000", "123613.530000", "123633.451000", "123633.454000", "123633.456000", "123633.459000", "123633.461000", "123633.464000", "123633.466000", "123633.469000", "123633.474000", "123633.476000", "123633.478000", "123633.481000", "123633.483000", "123633.486000", "123633.488000", "123633.491000", "123633.493000", "123633.496000", "123633.498000", "123633.500000", "123633.503000", "123633.505000", "123633.508000", "123633.510000", "123633.513000", "123633.515000", "123633.518000", "123633.520000", "123633.523000", "123633.526000", "123633.528000", "123633.530000", "123633.533000", "123653.450000", "123653.453000", "123653.456000", "123653.458000", "123653.461000", "123653.463000", "123653.466000", "123653.468000", "123653.470000", "123653.473000", "123653.475000", "123653.478000", "123653.480000", "123653.483000", "123653.485000", "123653.488000", "123653.490000", "123653.493000", "123653.495000", "123653.498000", "123653.500000", "123653.503000", "123653.505000", "123653.508000", "123653.510000", "123653.513000", "123653.515000", "123653.518000", "123653.520000", "123653.523000", "123653.526000", "123653.528000", "123713.450000", "123713.453000", "123713.455000", "123713.458000", "123713.460000", "123713.463000", "123713.465000", "123713.468000", "123713.470000", "123713.473000", "123713.475000", "123713.478000", "123713.480000", "123713.483000", "123713.485000", "123713.488000", "123713.490000", "123713.494000", "123713.496000", "123713.499000", "123713.501000", "123713.504000", "123713.506000", "123713.509000", "123713.511000", "123713.514000", "123713.516000", "123713.519000", "123713.521000", "123713.524000", "123713.526000", "123713.529000", "123713.531000", "123733.450000", "123733.453000", "123733.456000", "123733.458000", "123733.461000", "123733.463000", "123733.466000", "123733.468000", "123733.470000", "123733.473000", "123733.475000", "123733.478000", "123733.480000", "123733.483000", "123733.