{
    "AcquisitionMatrixPE": 64,
    "AcquisitionNumber": 1,
    "AcquisitionTime": "15:25:0.690000",
    "BandwidthPerPixelPhaseEncode": 28.935,
    "BaseResolution": 64,
    "BodyPartExamined": "BRAIN",
    "CoilString": "HC2_4_6_7;SC",
    "ConsistencyInfo": "N4_VE11E_LATEST_20181129",
    "ConversionSoftware": "dcm2niix",
    "ConversionSoftwareVersion": "v1.0.20190902",
    "DerivedVendorReportedEchoSpacing": 0.000540003,
    "DeviceSerialNumber": "166182",
    "DwellTime": 3.4e-06,
    "EchoTime": 0.032,
    "EchoTrainLength": 64,
    "EffectiveEchoSpacing": 0.000540003,
    "FlipAngle": 40,
    "ImageOrientationPatientDICOM": [
        0.997879,
        0.0548284,
        -0.0351033,
        -0.0563142,
        0.997494,
        -0.0428376
    ],
    "ImageType": [
        "ORIGINAL",
        "PRIMARY",
        "M",
        "ND",
        "NORM",
        "MOSAIC"
    ],
    "ImagingFrequency": 123.256,
    "InPlanePhaseEncodingDirectionDICOM": "COL",
    "InstitutionAddress": "PEARSE_STREET_._City_District_IE_D2",
    "InstitutionName": "TCIN",
    "InstitutionalDepartmentName": "MRI",
    "MRAcquisitionType": "2D",
    "MagneticFieldStrength": 3,
    "Manufacturer": "Siemens",
    "ManufacturersModelName": "Prisma",
    "Modality": "MR",
    "MultibandAccelerationFactor": 4,
    "PartialFourier": 1,
    "PatientPosition": "HFS",
    "PercentPhaseFOV": 100,
    "PhaseEncodingDirection": "j-",
    "PhaseEncodingSteps": 64,
    "PhaseResolution": 1,
    "PixelBandwidth": 2300,
    "ProcedureStepDescription": "Rhodri_Head_BOLD",
    "ProtocolName": "cmrr_mbep2d_Pictures_AP_RDS",
    "PulseSequenceDetails": "%SiemensSeq%_ep2d_bold",
    "ReceiveCoilActiveElements": "HC2,4,6,7;SC",
    "ReceiveCoilName": "SpecialPurpose_4",
    "ReconMatrixPE": 64,
    "RefLinesPE": 12,
    "RepetitionTime": 0.61,
    "SAR": 0.265395,
    "ScanOptions": "FS",
    "ScanningSequence": "EP",
    "SequenceName": "_epfid2d1_64",
    "SequenceVariant": "SK",
    "SeriesDescription": "cmrr_mbep2d_Pictures_AP_RDS",
    "SeriesNumber": 11,
    "ShimSetting": [
        -3623,
        -7469,
        3857,
        921,
        -107,
        376,
        -47,
        67
    ],
    "SliceThickness": 3,
    "SliceTiming": [
        0.2625,
        0,
        0.3275,
        0.065,
        0.3925,
        0.13,
        0.46,
        0.1975,
        0.525,
        0.2625,
        0,
        0.3275,
        0.065,
        0.3925,
        0.13,
        0.46,
        0.1975,
        0.525,
        0.2625,
        0,
        0.3275,
        0.065,
        0.3925,
        0.13,
        0.46,
        0.1975,
        0.525,
        0.2625,
        0,
        0.3275,
        0.065,
        0.3925,
        0.13,
        0.46,
        0.1975,
        0.525
    ],
    "SoftwareVersions": "syngo_MR_E11",
    "SpacingBetweenSlices": 3.3,
    "StationName": "AWP166182",
    "TaskName": "pictures",
    "TotalReadoutTime": 0.0340202,
    "TxRefAmp": 236.954,
    "dcmmeta_affine": [
        [
            -2.993635654449463,
            -0.16894246637821198,
            -0.1077999547123909,
            102.77349853515625
        ],
        [
            -0.16448508203029633,
            2.992480993270874,
            -0.14758774638175964,
            -95.33757781982422
        ],
        [
            -0.10531004518270493,
            0.12851285934448242,
            3.2949352264404297,
            -99.37979888916016
        ],
        [
            0.0,
            0.0,
            0.0,
            1.0
        ]
    ],
    "dcmmeta_reorient_transform": [
        [
            0.0,
            -1.0,
            0.0,
            63.0
        ],
        [
            1.0,
            0.0,
            0.0,
            0.0
        ],
        [
            0.0,
            0.0,
            1.0,
            0.0
        ],
        [
            0.0,
            0.0,
            0.0,
            1.0
        ]
    ],
    "dcmmeta_shape": [
        64,
        64,
        36,
        510
    ],
    "dcmmeta_slice_dim": 2,
    "dcmmeta_version": 0.6,
    "global": {
        "const": {
            "AcquisitionMatrix": [
                64,
                0,
                0,
                64
            ],
            "AngioFlag": "N",
            "BitsAllocated": 16,
            "BitsStored": 12,
            "BodyPartExamined": "BRAIN",
            "Columns": 384,
            "EchoNumbers": 1,
            "EchoTime": 32.0,
            "EchoTrainLength": 64,
            "FlipAngle": 40.0,
            "HighBit": 11,
            "ImageOrientationPatient": [
                0.99787855261188,
                0.05482836125005,
                -0.0351033479865,
                -0.0563141555768,
                0.99749368629296,
                -0.0428376200012
            ],
            "ImagePositionPatient": [
                -544.08103405078,
                -598.30331330766,
                -53.871825803358
            ],
            "ImageType": [
                "ORIGINAL",
                "PRIMARY",
                "M",
                "ND",
                "NORM",
                "MOSAIC"
            ],
            "ImagedNucleus": "1H",
            "ImagingFrequency": 123.256444,
            "InPlanePhaseEncodingDirection": "COL",
            "MRAcquisitionType": "2D",
            "MagneticFieldStrength": 3.0,
            "Manufacturer": "SIEMENS",
            "ManufacturerModelName": "Prisma",
            "Modality": "MR",
            "NumberOfAverages": 1.0,
            "NumberOfPhaseEncodingSteps": 64,
            "PercentPhaseFieldOfView": 100.0,
            "PercentSampling": 100.0,
            "PerformedProcedureStepStartTime": "144749.110000",
            "PhotometricInterpretation": "MONOCHROME2",
            "PixelBandwidth": 2300.0,
            "PixelRepresentation": 0,
            "PixelSpacing": [
                3.0,
                3.0
            ],
            "ProtocolName": "cmrr_mbep2d_Pictures_AP_RDS",
            "RepetitionTime": 610.0,
            "Rows": 384,
            "SAR": 0.2653951981265,
            "SamplesPerPixel": 1,
            "ScanOptions": "FS",
            "ScanningSequence": "EP",
            "SequenceName": "*epfid2d1_64",
            "SequenceVariant": "SK",
            "SeriesDescription": "cmrr_mbep2d_Pictures_AP_RDS",
            "SeriesNumber": 11,
            "SeriesTime": "152531.056000",
            "SliceLocation": -98.320699880724,
            "SliceThickness": 3.0,
            "SmallestImagePixelValue": 0,
            "SoftwareVersions": "syngo MR E11",
            "SpacingBetweenSlices": 3.3000001144236,
            "SpecificCharacterSet": "ISO_IR 100",
            "StudyID": "2",
            "StudyTime": "144749.058000",
            "TransmitCoilName": "Body",
            "VariableFlipAngleFlag": "N",
            "WindowCenterWidthExplanation": "Algo1"
        },
        "slices": {}
    },
    "time": {
        "samples": {
            "AcquisitionNumber": [
                1,
                2,
                3,
                4,
                5,
                6,
                7,
                8,
                9,
                10,
                11,
                12,
                13,
                14,
                15,
                16,
                17,
                18,
                19,
                20,
                21,
                22,
                23,
                24,
                25,
                26,
                27,
                28,
                29,
                30,
                31,
                32,
                33,
                34,
                35,
                36,
                37,
                38,
                39,
                40,
                41,
                42,
                43,
                44,
                45,
                46,
                47,
                48,
                49,
                50,
                51,
                52,
                53,
                54,
                55,
                56,
                57,
                58,
                59,
                60,
                61,
                62,
                63,
                64,
                65,
                66,
                67,
                68,
                69,
                70,
                71,
                72,
                73,
                74,
                75,
                76,
                77,
                78,
                79,
                80,
                81,
                82,
                83,
                84,
                85,
                86,
                87,
                88,
                89,
                90,
                91,
                92,
                93,
                94,
                95,
                96,
                97,
                98,
                99,
                100,
                101,
                102,
                103,
                104,
                105,
                106,
                107,
                108,
                109,
                110,
                111,
                112,
                113,
                114,
                115,
                116,
                117,
                118,
                119,
                120,
                121,
                122,
                123,
                124,
                125,
                126,
                127,
                128,
                129,
                130,
                131,
                132,
                133,
                134,
                135,
                136,
                137,
                138,
                139,
                140,
                141,
                142,
                143,
                144,
                145,
                146,
                147,
                148,
                149,
                150,
                151,
                152,
                153,
                154,
                155,
                156,
                157,
                158,
                159,
                160,
                161,
                162,
                163,
                164,
                165,
                166,
                167,
                168,
                169,
                170,
                171,
                172,
                173,
                174,
                175,
                176,
                177,
                178,
                179,
                180,
                181,
                182,
                183,
                184,
                185,
                186,
                187,
                188,
                189,
                190,
                191,
                192,
                193,
                194,
                195,
                196,
                197,
                198,
                199,
                200,
                201,
                202,
                203,
                204,
                205,
                206,
                207,
                208,
                209,
                210,
                211,
                212,
                213,
                214,
                215,
                216,
                217,
                218,
                219,
                220,
                221,
                222,
                223,
                224,
                225,
                226,
                227,
                228,
                229,
                230,
                231,
                232,
                233,
                234,
                235,
                236,
                237,
                238,
                239,
                240,
                241,
                242,
                243,
                244,
                245,
                246,
                247,
                248,
                249,
                250,
                251,
                252,
                253,
                254,
                255,
                256,
                257,
                258,
                259,
                260,
                261,
                262,
                263,
                264,
                265,
                266,
                267,
                268,
                269,
                270,
                271,
                272,
                273,
                274,
                275,
                276,
                277,
                278,
                279,
                280,
                281,
                282,
                283,
                284,
                285,
                286,
                287,
                288,
                289,
                290,
                291,
                292,
                293,
                294,
                295,
                296,
                297,
                298,
                299,
                300,
                301,
                302,
                303,
                304,
                305,
                306,
                307,
                308,
                309,
                310,
                311,
                312,
                313,
                314,
                315,
                316,
                317,
                318,
                319,
                320,
                321,
                322,
                323,
                324,
                325,
                326,
                327,
                328,
                329,
                330,
                331,
                332,
                333,
                334,
                335,
                336,
                337,
                338,
                339,
                340,
                341,
                342,
                343,
                344,
                345,
                346,
                347,
                348,
                349,
                350,
                351,
                352,
                353,
                354,
                355,
                356,
                357,
                358,
                359,
                360,
                361,
                362,
                363,
                364,
                365,
                366,
                367,
                368,
                369,
                370,
                371,
                372,
                373,
                374,
                375,
                376,
                377,
                378,
                379,
                380,
                381,
                382,
                383,
                384,
                385,
                386,
                387,
                388,
                389,
                390,
                391,
                392,
                393,
                394,
                395,
                396,
                397,
                398,
                399,
                400,
                401,
                402,
                403,
                404,
                405,
                406,
                407,
                408,
                409,
                410,
                411,
                412,
                413,
                414,
                415,
                416,
                417,
                418,
                419,
                420,
                421,
                422,
                423,
                424,
                425,
                426,
                427,
                428,
                429,
                430,
                431,
                432,
                433,
                434,
                435,
                436,
                437,
                438,
                439,
                440,
                441,
                442,
                443,
                444,
                445,
                446,
                447,
                448,
                449,
                450,
                451,
                452,
                453,
                454,
                455,
                456,
                457,
                458,
                459,
                460,
                461,
                462,
                463,
                464,
                465,
                466,
                467,
                468,
                469,
                470,
                471,
                472,
                473,
                474,
                475,
                476,
                477,
                478,
                479,
                480,
                481,
                482,
                483,
                484,
                485,
                486,
                487,
                488,
                489,
                490,
                491,
                492,
                493,
                494,
                495,
                496,
                497,
                498,
                499,
                500,
                501,
                502,
                503,
                504,
                505,
                506,
                507,
                508,
                509,
                510
            ],
            "AcquisitionTime": [
                "152500.690000",
                "152501.300000",
                "152501.910000",
                "152502.520000",
                "152503.130000",
                "152503.740000",
                "152504.350000",
                "152504.960000",
                "152505.570000",
                "152506.180000",
                "152506.790000",
                "152507.400000",
                "152508.010000",
                "152508.620000",
                "152509.230000",
                "152509.840000",
                "152510.450000",
                "152511.060000",
                "152511.670000",
                "152512.280000",
                "152512.890000",
                "152513.500000",
                "152514.110000",
                "152514.720000",
                "152515.330000",
                "152515.940000",
                "152516.550000",
                "152517.160000",
                "152517.770000",
                "152518.380000",
                "152518.990000",
                "152519.600000",
                "152520.210000",
                "152520.820000",
                "152521.430000",
                "152522.040000",
                "152522.650000",
                "152523.260000",
                "152523.870000",
                "152524.480000",
                "152525.090000",
                "152525.700000",
                "152526.310000",
                "152526.920000",
                "152527.530000",
                "152528.140000",
                "152528.750000",
                "152529.360000",
                "152529.970000",
                "152530.580000",
                "152531.190000",
                "152531.800000",
                "152532.410000",
                "152533.020000",
                "152533.630000",
                "152534.240000",
                "152534.850000",
                "152535.460000",
                "152536.070000",
                "152536.680000",
                "152537.290000",
                "152537.900000",
                "152538.510000",
                "152539.120000",
                "152539.730000",
                "152540.340000",
                "152540.950000",
                "152541.560000",
                "152542.170000",
                "152542.780000",
                "152543.390000",
                "152544.000000",
                "152544.610000",
                "152545.220000",
                "152545.830000",
                "152546.440000",
                "152547.050000",
                "152547.660000",
                "152548.270000",
                "152548.880000",
                "152549.490000",
                "152550.100000",
                "152550.710000",
                "152551.320000",
                "152551.930000",
                "152552.540000",
                "152553.150000",
                "152553.760000",
                "152554.370000",
                "152554.980000",
                "152555.590000",
                "152556.200000",
                "152556.810000",
                "152557.420000",
                "152558.030000",
                "152558.640000",
                "152559.250000",
                "152559.860000",
                "152600.470000",
                "152601.080000",
                "152601.690000",
                "152602.300000",
                "152602.910000",
                "152603.520000",
                "152604.130000",
                "152604.740000",
                "152605.350000",
                "152605.960000",
                "152606.570000",
                "152607.180000",
                "152607.790000",
                "152608.400000",
                "152609.010000",
                "152609.620000",
                "152610.230000",
                "152610.840000",
                "152611.450000",
                "152612.060000",
                "152612.670000",
                "152613.280000",
                "152613.890000",
                "152614.500000",
                "152615.110000",
                "152615.720000",
                "152616.330000",
                "152616.940000",
                "152617.550000",
                "152618.160000",
                "152618.770000",
                "152619.380000",
                "152619.990000",
                "152620.600000",
                "152621.210000",
                "152621.820000",
                "152622.430000",
                "152623.040000",
                "152623.650000",
                "152624.260000",
                "152624.870000",
                "152625.480000",
                "152626.090000",
                "152626.700000",
                "152627.310000",
                "152627.920000",
                "152628.530000",
                "152629.140000",
                "152629.750000",
                "152630.360000",
                "152630.970000",
                "152631.580000",
                "152632.190000",
                "152632.800000",
                "152633.410000",
                "152634.020000",
                "152634.630000",
                "152635.240000",
                "152635.850000",
                "152636.460000",
                "152637.070000",
                "152637.680000",
                "152638.290000",
                "152638.900000",
                "152639.510000",
                "152640.120000",
                "152640.730000",
                "152641.340000",
                "152641.950000",
                "152642.560000",
                "152643.170000",
                "152643.780000",
                "152644.390000",
                "152645.000000",
                "152645.610000",
                "152646.220000",
                "152646.830000",
                "152647.440000",
                "152648.050000",
                "152648.660000",
                "152649.270000",
                "152649.880000",
                "152650.490000",
                "152651.100000",
                "152651.710000",
                "152652.320000",
                "152652.930000",
                "152653.540000",
                "152654.150000",
                "152654.760000",
                "152655.370000",
                "152655.980000",
                "152656.590000",
                "152657.200000",
                "152657.810000",
                "152658.420000",
                "152659.030000",
                "152659.640000",
                "152700.250000",
                "152700.860000",
                "152701.470000",
                "152702.080000",
                "152702.690000",
                "152703.300000",
                "152703.910000",
                "152704.520000",
                "152705.130000",
                "152705.740000",
                "152706.350000",
                "152706.960000",
                "152707.570000",
                "152708.180000",
                "152708.790000",
                "152709.400000",
                "152710.010000",
                "152710.620000",
                "152711.230000",
                "152711.840000",
                "152712.450000",
                "152713.060000",
                "152713.670000",
                "152714.280000",
                "152714.890000",
                "152715.500000",
                "152716.110000",
                "152716.720000",
                "152717.330000",
                "152717.940000",
                "152718.550000",
                "152719.160000",
                "152719.770000",
                "152720.380000",
                "152720.990000",
                "152721.600000",
                "152722.210000",
                "152722.820000",
                "152723.430000",
                "152724.040000",
                "152724.650000",
                "152725.260000",
                "152725.870000",
                "152726.480000",
                "152727.090000",
                "152727.700000",
                "152728.310000",
                "152728.920000",
                "152729.530000",
                "152730.140000",
                "152730.750000",
                "152731.360000",
                "152731.970000",
                "152732.580000",
                "152733.190000",
                "152733.800000",
                "152734.410000",
                "152735.020000",
                "152735.630000",
                "152736.240000",
                "152736.850000",
                "152737.460000",
                "152738.070000",
                "152738.680000",
                "152739.290000",
                "152739.900000",
                "152740.510000",
                "152741.120000",
                "152741.730000",
                "152742.340000",
                "152742.950000",
                "152743.560000",
                "152744.170000",
                "152744.780000",
                "152745.390000",
                "152746.000000",
                "152746.610000",
                "152747.220000",
                "152747.830000",
                "152748.440000",
                "152749.050000",
                "152749.660000",
                "152750.270000",
                "152750.880000",
                "152751.490000",
                "152752.100000",
                "152752.710000",
                "152753.320000",
                "152753.930000",
                "152754.540000",
                "152755.150000",
                "152755.760000",
                "152756.370000",
                "152756.980000",
                "152757.590000",
                "152758.200000",
                "152758.810000",
                "152759.420000",
                "152800.030000",
                "152800.640000",
                "152801.250000",
                "152801.860000",
                "152802.470000",
                "152803.080000",
                "152803.690000",
                "152804.300000",
                "152804.910000",
                "152805.520000",
                "152806.130000",
                "152806.740000",
                "152807.350000",
                "152807.960000",
                "152808.570000",
                "152809.180000",
                "152809.790000",
                "152810.400000",
                "152811.010000",
                "152811.620000",
                "152812.230000",
                "152812.840000",
                "152813.450000",
                "152814.060000",
                "152814.670000",
                "152815.280000",
                "152815.890000",
                "152816.500000",
                "152817.110000",
                "152817.720000",
                "152818.330000",
                "152818.940000",
                "152819.550000",
                "152820.160000",
                "152820.770000",
                "152821.380000",
                "152821.990000",
                "152822.600000",
                "152823.210000",
                "152823.820000",
                "152824.430000",
                "152825.040000",
                "152825.650000",
                "152826.260000",
                "152826.870000",
                "152827.480000",
                "152828.090000",
                "152828.700000",
                "152829.310000",
                "152829.920000",
                "152830.530000",
                "152831.140000",
                "152831.750000",
                "152832.360000",
                "152832.970000",
                "152833.580000",
                "152834.190000",
                "152834.800000",
                "152835.410000",
                "152836.020000",
                "152836.630000",
                "152837.240000",
                "152837.850000",
                "152838.460000",
                "152839.070000",
                "152839.680000",
                "152840.290000",
                "152840.900000",
                "152841.510000",
                "152842.120000",
                "152842.730000",
                "152843.340000",
                "152843.950000",
                "152844.560000",
                "152845.170000",
                "152845.780000",
                "152846.390000",
                "152847.000000",
                "152847.610000",
                "152848.220000",
