{"AcquisitionMatrixPE": 64, "AcquisitionNumber": 1, "AcquisitionTime": "14:44:45.710000", "BandwidthPerPixelPhaseEncode": 28.935, "BaseResolution": 64, "BodyPartExamined": "BRAIN", "CoilString": "HC2_4_6_7;SC", "ConsistencyInfo": "N4_VE11E_LATEST_20181129", "ConversionSoftware": "dcm2niix", "ConversionSoftwareVersion": "v1.0.20190902", "DerivedVendorReportedEchoSpacing": 0.000540003, "DeviceSerialNumber": "166182", "DwellTime": 3.4e-06, "EchoTime": 0.032, "EchoTrainLength": 64, "EffectiveEchoSpacing": 0.000540003, "FlipAngle": 40, "ImageOrientationPatientDICOM": [0.999004, -0.0425645, 0.0133777, 0.0429187, 0.998703, -0.0274091], "ImageType": ["ORIGINAL", "PRIMARY", "M", "ND", "NORM", "MOSAIC"], "ImagingFrequency": 123.256, "InPlanePhaseEncodingDirectionDICOM": "COL", "InstitutionAddress": "PEARSE_STREET_._City_District_IE_D2", "InstitutionName": "TCIN", "InstitutionalDepartmentName": "MRI", "MRAcquisitionType": "2D", "MagneticFieldStrength": 3, "Manufacturer": "Siemens", "ManufacturersModelName": "Prisma", "Modality": "MR", "MultibandAccelerationFactor": 4, "PartialFourier": 1, "PatientPosition": "HFS", "PercentPhaseFOV": 100, "PhaseEncodingDirection": "j-", "PhaseEncodingSteps": 64, "PhaseResolution": 1, "PixelBandwidth": 2300, "ProcedureStepDescription": "Rhodri_Head_BOLD", "ProtocolName": "cmrr_mbep2d_Pictures_AP_RDS", "PulseSequenceDetails": "%SiemensSeq%_ep2d_bold", "ReceiveCoilActiveElements": "HC2,4,6,7;SC", "ReceiveCoilName": "SpecialPurpose_4", "ReconMatrixPE": 64, "RefLinesPE": 12, "RepetitionTime": 0.61, "SAR": 0.322161, "ScanOptions": "FS", "ScanningSequence": "EP", "SequenceName": "_epfid2d1_64", "SequenceVariant": "SK", "SeriesDescription": "cmrr_mbep2d_Pictures_AP_RDS", "SeriesNumber": 8, "ShimSetting": [-3644, -7440, 3997, 907, -125, 697, 68, 51], "SliceThickness": 3, "SliceTiming": [0.26, 0, 0.3275, 0.065, 0.3925, 0.13, 0.4575, 0.195, 0.5225, 0.26, 0, 0.3275, 0.065, 0.3925, 0.13, 0.4575, 0.195, 0.5225, 0.26, 0, 0.3275, 0.065, 0.3925, 0.13, 0.4575, 0.195, 0.5225, 0.26, 0, 0.3275, 0.065, 0.3925, 0.13, 0.4575, 0.195, 0.5225], "SoftwareVersions": "syngo_MR_E11", "SpacingBetweenSlices": 3.3, "StationName": "AWP166182", "TaskName": "pictures", "TotalReadoutTime": 0.0340202, "TxRefAmp": 231.785, "dcmmeta_affine": [[-2.9970123767852783, 0.12875618040561676, 0.04023931547999382, 88.30094909667969], [0.12769360840320587, 2.996107578277588, -0.09225476533174515, -110.13976287841797], [0.040133241564035416, 0.08222739398479462, 3.29846453666687, -84.97869873046875], [0.0, 0.0, 0.0, 1.0]], "dcmmeta_reorient_transform": [[0.0, -1.0, 0.0, 63.0], [1.0, 0.0, 0.0, 0.0], [0.0, 0.0, 1.0, 0.0], [0.0, 0.0, 0.0, 1.0]], "dcmmeta_shape": [64, 64, 36, 148], "dcmmeta_slice_dim": 2, "dcmmeta_version": 0.6, "global": {"const": {"AcquisitionMatrix": [64, 0, 0, 64], "AngioFlag": "N", "BitsAllocated": 16, "BitsStored": 12, "BodyPartExamined": "BRAIN", "Columns": 384, "EchoNumbers": 1, "EchoTime": 32.0, "EchoTrainLength": 64, "FlipAngle": 40.0, "HighBit": 11, "ImageOrientationPatient": [0.99900415211529, -0.0425645384957, 0.01337774715903, 0.04291872478287, 0.99870251957921, -0.0274091307624], "ImagePositionPatient": [-596.53557257483, -537.56124652853, -73.063308786664], "ImageType": ["ORIGINAL", "PRIMARY", "M", "ND", "NORM", "MOSAIC"], "ImagedNucleus": "1H", "ImagingFrequency": 123.256204, "InPlanePhaseEncodingDirection": "COL", "MRAcquisitionType": "2D", "MagneticFieldStrength": 3.0, "Manufacturer": "SIEMENS", "ManufacturerModelName": "Prisma", "Modality": "MR", "NumberOfAverages": 1.0, "NumberOfPhaseEncodingSteps": 64, "PercentPhaseFieldOfView": 100.0, "PercentSampling": 100.0, "PerformedProcedureStepStartTime": "142758.332000", "PhotometricInterpretation": "MONOCHROME2", "PixelBandwidth": 2300.0, "PixelRepresentation": 0, "PixelSpacing": [3.0, 3.0], "ProtocolName": "cmrr_mbep2d_Pictures_AP_RDS", "RepetitionTime": 610.0, "Rows": 384, "SAR": 0.32216088301719, "SamplesPerPixel": 1, "ScanOptions": "FS", "ScanningSequence": "EP", "SequenceName": "*epfid2d1_64", "SequenceVariant": "SK", "SeriesDescription": "cmrr_mbep2d_Pictures_AP_RDS", "SeriesNumber": 8, "SeriesTime": "144500.720000", "SliceLocation": -80.783380388102, "SliceThickness": 3.0, "SmallestImagePixelValue": 0, "SoftwareVersions": "syngo MR E11", "SpacingBetweenSlices": 3.2999998658409, "SpecificCharacterSet": "ISO_IR 100", "StudyID": "1", "StudyTime": "142758.265000", "TransmitCoilName": "Body", "VariableFlipAngleFlag": "N", "WindowCenterWidthExplanation": "Algo1"}, "slices": {}}, "time": {"samples": {"AcquisitionNumber": [1, 2, 3, 4, 5, 6, 7, 8, 9, 10, 11, 12, 13, 14, 15, 16, 17, 18, 19, 20, 21, 22, 23, 24, 25, 26, 27, 28, 29, 30, 31, 32, 33, 34, 35, 36, 37, 38, 39, 40, 41, 42, 43, 44, 45, 46, 47, 48, 49, 50, 51, 52, 53, 54, 55, 56, 57, 58, 59, 60, 61, 62, 63, 64, 65, 66, 67, 68, 69, 70, 71, 72, 73, 74, 75, 76, 77, 78, 79, 80, 81, 82, 83, 84, 85, 86, 87, 88, 89, 90, 91, 92, 93, 94, 95, 96, 97, 98, 99, 100, 101, 102, 103, 104, 105, 106, 107, 108, 109, 110, 111, 112, 113, 114, 115, 116, 117, 118, 119, 120, 121, 122, 123, 124, 125, 126, 127, 128, 129, 130, 131, 132, 133, 134, 135, 136, 137, 138, 139, 140, 141, 142, 143, 144, 145, 146, 147, 148], "AcquisitionTime": ["144445.710000", "144446.320000", "144446.930000", "144447.540000", "144448.150000", "144448.760000", "144449.370000", "144449.980000", "144450.590000", "144451.200000", "144451.810000", "144452.420000", "144453.030000", "144453.640000", "144454.250000", "144454.860000", "144455.470000", "144456.080000", "144456.690000", "144457.300000", "144457.910000", "144458.520000", "144459.130000", "144459.740000", "144500.350000", "144500.960000", "144501.570000", "144502.180000", "144502.790000", "144503.400000", "144504.010000", "144504.620000", "144505.230000", "144505.840000", "144506.450000", "144507.060000", "144507.670000", "144508.280000", "144508.890000", "144509.500000", "144510.110000", "144510.720000", "144511.330000", "144511.940000", "144512.550000", "144513.160000", "144513.770000", "144514.380000", "144514.990000", "144515.600000", "144516.210000", "144516.820000", "144517.430000", "144518.040000", "144518.650000", "144519.260000", "144519.870000", "144520.480000", "144521.090000", "144521.700000", "144522.310000", "144522.920000", "144523.530000", "144524.140000", "144524.750000", "144525.360000", "144525.970000", "144526.580000", "144527.190000", "144527.800000", "144528.410000", "144529.020000", "144529.630000", "144530.240000", "144530.850000", "144531.460000", "144532.070000", "144532.680000", "144533.290000", "144533.900000", "144534.510000", "144535.120000", "144535.730000", "144536.340000", "144536.950000", "144537.560000", "144538.170000", "144538.780000", "144539.390000", "144540.000000", "144540.610000", "144541.220000", "144541.830000", "144542.440000", "144543.050000", "144543.660000", "144544.270000", "144544.880000", "144545.490000", "144546.100000", "144546.710000", "144547.320000", "144547.930000", "144548.540000", "144549.150000", "144549.760000", "144550.370000", "144550.980000", "144551.590000", "144552.200000", "144552.810000", "144553.420000", "144554.030000", "144554.640000", "144555.250000", "144555.860000", "144556.470000", "144557.080000", "144557.690000", "144558.300000", "144558.910000", "144559.520000", "144600.130000", "144600.740000", "144601.350000", "144601.960000", "144602.570000", "144603.180000", "144603.790000", "144604.400000", "144605.010000", "144605.620000", "144606.230000", "144606.840000", "144607.450000", "144608.060000", "144608.670000", "144609.280000", "144609.890000", "144610.500000", "144611.110000", "144611.720000", "144612.330000", "144612.940000", "144613.550000", "144614.160000", "144614.770000", "144615.380000"], "ContentTime": ["144500.723000", "144500.726000", "144500.729000", "144500.731000", "144500.733000", "144500.739000", "144500.742000", "144500.744000", "144500.746000", "144500.749000", "144500.752000", "144500.760000", "144500.762000", "144500.764000", "144500.767000", "144500.769000", "144500.772000", "144500.774000", "144500.777000", "144500.779000", "144500.782000", "144500.784000", "144500.786000", "144520.718000", "144520.721000", "144520.723000", "144520.727000", "144520.730000", "144520.732000", "144520.735000", "144520.737000", "144520.739000", "144520.742000", "144520.744000", "144520.746000", "144520.749000", "144520.751000", "144520.754000", "144520.756000", "144520.758000", "144520.761000", "144520.763000", "144520.766000", "144520.768000", "144520.770000", "144520.773000", "144520.775000", "144520.777000", "144520.780000", "144520.782000", "144520.784000", "144520.787000", "144520.789000", "144520.792000", "144520.794000", "144520.796000", "144540.718000", "144540.721000", "144540.733000", "144540.736000", "144540.738000", "144540.740000", "144540.743000", "144540.745000", "144540.748000", "144540.750000", "144540.752000", "144540.755000", "144540.757000", "144540.759000", "144540.762000", "144540.764000", "144540.766000", "144540.769000", "144540.771000", "144540.774000", "144540.776000", "144540.778000", "144540.781000", "144540.783000", "144540.785000", "144540.788000", "144540.790000", "144540.793000", "144540.795000", "144540.797000", "144540.800000", "144540.802000", "144540.805000", "144600.718000", "144600.721000", "144600.723000", "144600.726000", "144600.728000", "144600.731000", "144600.733000", "144600.735000", "144600.738000", "144600.740000", "144600.743000", "144600.745000", "144600.747000", "144600.750000", "144600.753000", "144600.755000", "144600.758000", "144600.761000", "144600.763000", "144600.765000", "144600.768000", "144600.770000", "144600.772000", "144600.775000", "144600.777000", "144600.780000", "144600.782000", "144600.784000", "144600.787000", "144600.789000", "144600.792000", "144600.794000", "144600.796000", "144616.980000", "144616.983000", "144616.985000", "144616.988000", "144616.990000", "144616.992000", "144616.995000", "144616.997000", "144617.001000", "144617.003000", "144617.006000", "144617.008000", "144617.011000", "144617.013000", "144617.015000", "144617.020000", "144617.023000", "144617.025000", "144617.028000", "144617.031000", "144617.033000", "144617.036000", "144617.043000", "144617.046000", "144617.049000", "144617.052000"], "InstanceCreationTime": ["144500.723000", "144500.726000", "144500.729000", "144500.731000", "144500.733000", "144500.739000", "144500.742000", "144500.744000", "144500.746000", "144500.749000", "144500.752000", "144500.760000", "144500.762000", "144500.764000", "144500.767000", "144500.769000", "144500.772000", "144500.774000", "144500.777000", "144500.779000", "144500.782000", "144500.784000", "144500.786000", "144520.718000", "144520.721000", "144520.723000", "144520.727000", "144520.730000", "144520.732000", "144520.735000", "144520.737000", "144520.739000", "144520.742000", "144520.744000", "144520.746000", "144520.749000", "144520.751000", "144520.754000", "144520.756000", "144520.758000", "144520.761000", "144520.763000", "144520.766000", "144520.768000", "144520.770000", "144520.773000", "144520.775000", "144520.777000", "144520.780000", "144520.782000", "144520.784000", "144520.787000", "144520.789000", "144520.792000", "144520.794000", "144520.796000", "144540.718000", "144540.721000", "144540.733000", "144540.736000", "144540.738000", "144540.740000", "144540.743000", "144540.745000", "144540.748000", "144540.750000", "144540.752000", "144540.755000", "144540.757000", "144540.759000", "144540.762000", "144540.764000", "144540.766000", "144540.769000", "144540.771000", "144540.774000", "144540.776000", "144540.778000", "144540.781000", "144540.783000", "144540.785000", "144540.788000", "144540.790000", "144540.793000", "144540.795000", "144540.797000", "144540.800000", "144540.802000", "144540.805000", "144600.718000", "144600.721000", "144600.723000", "144600.726000", "144600.728000", "144600.731000", "144600.733000", "144600.735000", "144600.738000", "144600.740000", "144600.743000", "144600.745000", "144600.747000", "144600.750000", "144600.753000", "144600.755000", "144600.758000", "144600.761000", "144600.763000", "144600.765000", "144600.768000", "144600.770000", "144600.772000", "144600.775000", "144600.777000", "144600.780000", "144600.782000", "144600.784000", "144600.787000", "144600.789000", "144600.792000", "144600.794000", "144600.796000", "144616.980000", "144616.983000", "144616.985000", "144616.988000", "144616.990000", "144616.992000", "144616.995000", "144616.997000", "144617.001000", "144617.003000", "144617.006000", "144617.008000", "144617.011000", "144617.013000", "144617.015000", "144617.020000", "144617.023000", "144617.025000", "144617.028000", "144617.031000", "144617.033000", "144617.036000", "144617.043000", "144617.046000", "144617.049000", "144617.052000"], "InstanceNumber": [1, 2, 3, 4, 5, 6, 7, 8, 9, 10, 11, 12, 13, 14, 15, 16, 17, 18, 19, 20, 21, 22, 23, 24, 25, 26, 27, 28, 29, 30, 31, 32, 33, 34, 35, 36, 37, 38, 39, 40, 41, 42, 43, 44, 45, 46, 47, 48, 49, 50, 51, 52, 53, 54, 55, 56, 57, 58, 59, 60, 61, 62, 63, 64, 65, 66, 67, 68, 69, 70, 71, 72, 73, 74, 75, 76, 77, 78, 79, 80, 81, 82, 83, 84, 85, 86, 87, 88, 89, 90, 91, 92, 93, 94, 95, 96, 97, 98, 99, 100, 101, 102, 103, 104, 105, 106, 107, 108, 109, 110, 111, 112, 113, 114, 115, 116, 117, 118, 119, 120, 121, 122, 123, 124, 125, 126, 127, 128, 129, 130, 131, 132, 133, 134, 135, 136, 137, 138, 139, 140, 141, 142, 143, 144, 145, 146, 147, 148], "LargestImagePixelValue": [615, 644, 633, 615, 603, 601, 586, 581, 624, 565, 602, 642, 628, 593, 594, 582, 617, 616, 623, 591, 598, 592, 591, 646, 625, 579, 631, 594, 590, 585, 580, 592, 575, 596, 608, 597, 598, 584, 626, 624, 590, 591, 591, 604, 598, 603, 599, 619, 605, 616, 599, 586, 587, 593, 596, 593, 588, 584, 621, 612, 612, 615, 601, 609, 617, 617, 596, 589, 603, 606, 595, 592, 616, 620, 595, 626, 602, 614, 633, 612, 571, 655, 578, 576, 600, 604, 587, 592, 591, 595, 605, 596, 596, 615, 608, 599, 619, 619, 602, 579, 634, 595, 612, 673, 618, 626, 628, 598, 595, 568, 580, 599, 584, 591, 597, 599, 626, 618, 599, 607, 618, 623, 598, 610, 609, 609, 626, 605, 633, 599, 611, 596, 619, 585, 628, 607, 615, 601, 623, 613, 608, 620, 600, 612, 610, 612, 596, 593], "WindowCenter": [336.0, 336.0, 334.0, 333.0, 329.0, 336.0, 330.0, 331.0, 329.0, 332.0, 331.0, 334.0, 333.0, 333.0, 332.0, 330.0, 329.0, 330.0, 336.0, 332.0, 335.0, 331.0, 329.0, 334.0, 335.0, 330.0, 330.0, 329.0, 331.0, 330.0, 331.0, 333.0, 326.0, 328.0, 326.0, 333.0, 334.0, 330.0, 331.0, 334.0, 334.0, 332.0, 331.0, 337.0, 326.0, 331.0, 331.0, 335.0, 330.0, 330.0, 330.0, 330.0, 331.0, 333.0, 331.0, 331.0, 325.0, 330.0, 326.0, 330.0, 329.0, 328.0, 332.0, 329.0, 335.0, 333.0, 328.0, 335.0, 331.0, 331.0, 328.0, 330.0, 331.0, 332.0, 330.0, 330.0, 326.0, 329.0, 334.0, 331.0, 331.0, 336.0, 331.0, 331.0, 331.0, 332.0, 330.0, 331.0, 332.0, 330.0, 329.0, 333.0, 332.0, 333.0, 329.0, 328.0, 335.0, 333.0, 331.0, 331.0, 330.0, 328.0, 326.0, 333.0, 329.0, 331.0, 332.0, 329.0, 330.0, 327.0, 327.0, 329.0, 324.0, 333.0, 335.0, 329.0, 333.0, 330.0, 330.0, 329.0, 336.0, 333.0, 333.0, 332.0, 331.0, 330.0, 332.0, 329.0, 334.0, 332.0, 328.0, 320.0, 334.0, 324.0, 338.0, 331.0, 333.0, 330.0, 333.0, 335.0, 329.0, 330.0, 328.0, 336.0, 329.0, 336.0, 329.0, 334.0], "WindowWidth": [722.0, 723.0, 717.0, 716.0, 709.0, 721.0, 710.0, 712.0, 709.0, 714.0, 712.0, 718.0, 717.0, 717.0, 714.0, 709.0, 707.0, 711.0, 722.0, 714.0, 720.0, 713.0, 709.0, 718.0, 719.0, 710.0, 711.0, 708.0, 713.0, 711.0, 712.0, 715.0, 702.0, 707.0, 702.0, 716.0, 717.0, 711.0, 712.0, 719.0, 718.0, 714.0, 712.0, 725.0, 704.0, 712.0, 712.0, 720.0, 711.0, 710.0, 710.0, 711.0, 712.0, 716.0, 711.0, 713.0, 701.0, 711.0, 701.0, 710.0, 708.0, 707.0, 714.0, 709.0, 720.0, 717.0, 707.0, 721.0, 713.0, 712.0, 707.0, 711.0, 712.0, 714.0, 711.0, 711.0, 703.0, 708.0, 717.0, 712.0, 713.0, 721.0, 713.0, 712.0, 712.0, 714.0, 709.0, 713.0, 713.0, 711.0, 708.0, 715.0, 715.0, 717.0, 708.0, 706.0, 721.0, 717.0, 712.0, 713.0, 710.0, 707.0, 703.0, 716.0, 708.0, 713.0, 715.0, 708.0, 711.0, 705.0, 704.0, 708.0, 700.0, 716.0, 720.0, 708.0, 715.0, 710.0, 711.0, 707.0, 721.0, 716.0, 715.0, 714.0, 713.0, 710.0, 715.0, 708.0, 718.0, 714.0, 705.0, 691.0, 718.0, 700.0, 726.0, 713.0, 716.0, 710.0, 716.0, 719.0, 709.0, 711.0, 707.0, 722.0, 709.0, 721.0, 709.0, 718.0]}, "slices": {}}, "EventTimestamp": "14-47-17"}