{"AcquisitionMatrixPE": 64, "AcquisitionNumber": 1, "AcquisitionTime": "12:52:4.695000", "BandwidthPerPixelPhaseEncode": 28.935, "BaseResolution": 64, "BodyPartExamined": "BRAIN", "CoilString": "HC2_4_6_7;SC", "ConsistencyInfo": "N4_VE11E_LATEST_20181129", "ConversionSoftware": "dcm2niix", "ConversionSoftwareVersion": "v1.0.20190902", "DerivedVendorReportedEchoSpacing": 0.000540003, "DeviceSerialNumber": "166182", "DwellTime": 3.4e-06, "EchoTime": 0.032, "EchoTrainLength": 64, "EffectiveEchoSpacing": 0.000540003, "FlipAngle": 40, "ImageOrientationPatientDICOM": [0.999548, 0.00864886, 0.0287973, -0.00872293, 0.999959, 0.0024474], "ImageType": ["ORIGINAL", "PRIMARY", "M", "ND", "NORM", "MOSAIC"], "ImagingFrequency": 123.256, "InPlanePhaseEncodingDirectionDICOM": "COL", "InstitutionAddress": "PEARSE_STREET_._City_District_IE_D2", "InstitutionName": "TCIN", "InstitutionalDepartmentName": "MRI", "MRAcquisitionType": "2D", "MagneticFieldStrength": 3, "Manufacturer": "Siemens", "ManufacturersModelName": "Prisma", "Modality": "MR", "MultibandAccelerationFactor": 4, "PartialFourier": 1, "PatientPosition": "HFS", "PercentPhaseFOV": 100, "PhaseEncodingDirection": "j-", "PhaseEncodingSteps": 64, "PhaseResolution": 1, "PixelBandwidth": 2300, "ProcedureStepDescription": "Rhodri_Head_BOLD", "ProtocolName": "cmrr_mbep2d_Pictures_AP_RDS", "PulseSequenceDetails": "%SiemensSeq%_ep2d_bold", "ReceiveCoilActiveElements": "HC2,4,6,7;SC", "ReceiveCoilName": "SpecialPurpose_4", "ReconMatrixPE": 64, "RefLinesPE": 12, "RepetitionTime": 0.61, "SAR": 0.347026, "ScanOptions": "FS", "ScanningSequence": "EP", "SequenceName": "_epfid2d1_64", "SequenceVariant": "SK", "SeriesDescription": "cmrr_mbep2d_Pictures_AP_RDS", "SeriesNumber": 8, "ShimSetting": [-3619, -7425, 3913, 1051, 34, 166, 69, -217], "SliceThickness": 3, "SliceTiming": [0.2625, 0, 0.3275, 0.0675, 0.395, 0.1325, 0.46, 0.1975, 0.525, 0.2625, 0, 0.3275, 0.0675, 0.395, 0.1325, 0.46, 0.1975, 0.525, 0.2625, 0, 0.3275, 0.0675, 0.395, 0.1325, 0.46, 0.1975, 0.525, 0.2625, 0, 0.3275, 0.0675, 0.395, 0.1325, 0.46, 0.1975, 0.525], "SoftwareVersions": "syngo_MR_E11", "SpacingBetweenSlices": 3.3, "StationName": "AWP166182", "TaskName": "pictures", "TotalReadoutTime": 0.0340202, "TxRefAmp": 235.53, "dcmmeta_affine": [[-2.998643636703491, -0.026168793439865112, 0.09495718032121658, 92.07730865478516], [-0.025946591049432755, 2.9998769760131836, 0.008901718072593212, -97.74759674072266], [0.08639175444841385, -0.00734220165759325, 3.298621416091919, -89.88916778564453], [0.0, 0.0, 0.0, 1.0]], "dcmmeta_reorient_transform": [[0.0, -1.0, 0.0, 63.0], [1.0, 0.0, 0.0, 0.0], [0.0, 0.0, 1.0, 0.0], [0.0, 0.0, 0.0, 1.0]], "dcmmeta_shape": [64, 64, 36, 411], "dcmmeta_slice_dim": 2, "dcmmeta_version": 0.6, "global": {"const": {"AcquisitionMatrix": [64, 0, 0, 64], "AngioFlag": "N", "BitsAllocated": 16, "BitsStored": 12, "BodyPartExamined": "BRAIN", "Columns": 384, "EchoNumbers": 1, "EchoTime": 32.0, "EchoTrainLength": 64, "FlipAngle": 40.0, "HighBit": 11, "ImageOrientationPatient": [0.99954785550637, 0.00864886390688, 0.02879725170445, -0.0087229313878, 0.99995895950716, 0.00244740053318], "ImagePositionPatient": [-566.02463886675, -575.37640357729, -105.34916120499], "ImageType": ["ORIGINAL", "PRIMARY", "M", "ND", "NORM", "MOSAIC"], "ImagedNucleus": "1H", "ImagingFrequency": 123.256364, "InPlanePhaseEncodingDirection": "COL", "MRAcquisitionType": "2D", "MagneticFieldStrength": 3.0, "Manufacturer": "SIEMENS", "ManufacturerModelName": "Prisma", "Modality": "MR", "NumberOfAverages": 1.0, "NumberOfPhaseEncodingSteps": 64, "PercentPhaseFieldOfView": 100.0, "PercentSampling": 100.0, "PerformedProcedureStepStartTime": "124315.525000", "PhotometricInterpretation": "MONOCHROME2", "PixelBandwidth": 2300.0, "PixelRepresentation": 0, "PixelSpacing": [3.0, 3.0], "ProtocolName": "cmrr_mbep2d_Pictures_AP_RDS", "RepetitionTime": 610.0, "Rows": 384, "SAR": 0.34702560548455, "SamplesPerPixel": 1, "ScanOptions": "FS", "ScanningSequence": "EP", "SequenceName": "*epfid2d1_64", "SequenceVariant": "SK", "SeriesDescription": "cmrr_mbep2d_Pictures_AP_RDS", "SeriesNumber": 8, "SeriesTime": "125230.730000", "SliceLocation": -87.465778248792, "SliceThickness": 3.0, "SmallestImagePixelValue": 0, "SoftwareVersions": "syngo MR E11", "SpacingBetweenSlices": 3.3000000178144, "SpecificCharacterSet": "ISO_IR 100", "StudyID": "2", "StudyTime": "124315.461000", "TransmitCoilName": "Body", "VariableFlipAngleFlag": "N", "WindowCenterWidthExplanation": "Algo1"}, "slices": {}}, "time": {"samples": {"AcquisitionNumber": [1, 2, 3, 4, 5, 6, 7, 8, 9, 10, 11, 12, 13, 14, 15, 16, 17, 18, 19, 20, 21, 22, 23, 24, 25, 26, 27, 28, 29, 30, 31, 32, 33, 34, 35, 36, 37, 38, 39, 40, 41, 42, 43, 44, 45, 46, 47, 48, 49, 50, 51, 52, 53, 54, 55, 56, 57, 58, 59, 60, 61, 62, 63, 64, 65, 66, 67, 68, 69, 70, 71, 72, 73, 74, 75, 76, 77, 78, 79, 80, 81, 82, 83, 84, 85, 86, 87, 88, 89, 90, 91, 92, 93, 94, 95, 96, 97, 98, 99, 100, 101, 102, 103, 104, 105, 106, 107, 108, 109, 110, 111, 112, 113, 114, 115, 116, 117, 118, 119, 120, 121, 122, 123, 124, 125, 126, 127, 128, 129, 130, 131, 132, 133, 134, 135, 136, 137, 138, 139, 140, 141, 142, 143, 144, 145, 146, 147, 148, 149, 150, 151, 152, 153, 154, 155, 156, 157, 158, 159, 160, 161, 162, 163, 164, 165, 166, 167, 168, 169, 170, 171, 172, 173, 174, 175, 176, 177, 178, 179, 180, 181, 182, 183, 184, 185, 186, 187, 188, 189, 190, 191, 192, 193, 194, 195, 196, 197, 198, 199, 200, 201, 202, 203, 204, 205, 206, 207, 208, 209, 210, 211, 212, 213, 214, 215, 216, 217, 218, 219, 220, 221, 222, 223, 224, 225, 226, 227, 228, 229, 230, 231, 232, 233, 234, 235, 236, 237, 238, 239, 240, 241, 242, 243, 244, 245, 246, 247, 248, 249, 250, 251, 252, 253, 254, 255, 256, 257, 258, 259, 260, 261, 262, 263, 264, 265, 266, 267, 268, 269, 270, 271, 272, 273, 274, 275, 276, 277, 278, 279, 280, 281, 282, 283, 284, 285, 286, 287, 288, 289, 290, 291, 292, 293, 294, 295, 296, 297, 298, 299, 300, 301, 302, 303, 304, 305, 306, 307, 308, 309, 310, 311, 312, 313, 314, 315, 316, 317, 318, 319, 320, 321, 322, 323, 324, 325, 326, 327, 328, 329, 330, 331, 332, 333, 334, 335, 336, 337, 338, 339, 340, 341, 342, 343, 344, 345, 346, 347, 348, 349, 350, 351, 352, 353, 354, 355, 356, 357, 358, 359, 360, 361, 362, 363, 364, 365, 366, 367, 368, 369, 370, 371, 372, 373, 374, 375, 376, 377, 378, 379, 380, 381, 382, 383, 384, 385, 386, 387, 388, 389, 390, 391, 392, 393, 394, 395, 396, 397, 398, 399, 400, 401, 402, 403, 404, 405, 406, 407, 408, 409, 410, 411], "AcquisitionTime": ["125204.695000", "125205.305000", "125205.915000", "125206.525000", "125207.135000", "125207.745000", "125208.355000", "125208.965000", "125209.575000", "125210.185000", "125210.795000", "125211.405000", "125212.015000", "125212.625000", "125213.235000", "125213.845000", "125214.455000", "125215.065000", "125215.675000", "125216.285000", "125216.895000", "125217.505000", "125218.115000", "125218.725000", "125219.335000", "125219.945000", "125220.555000", "125221.165000", "125221.775000", "125222.385000", "125222.995000", "125223.605000", "125224.215000", "125224.825000", "125225.435000", "125226.045000", "125226.655000", "125227.265000", "125227.875000", "125228.485000", "125229.095000", "125229.705000", "125230.315000", "125230.925000", "125231.535000", "125232.145000", "125232.755000", "125233.365000", "125233.975000", "125234.585000", "125235.195000", "125235.805000", "125236.415000", "125237.025000", "125237.635000", "125238.245000", "125238.855000", "125239.465000", "125240.075000", "125240.685000", "125241.295000", "125241.905000", "125242.515000", "125243.125000", "125243.735000", "125244.345000", "125244.955000", "125245.565000", "125246.175000", "125246.785000", "125247.395000", "125248.005000", "125248.615000", "125249.225000", "125249.835000", "125250.445000", "125251.055000", "125251.665000", "125252.275000", "125252.885000", "125253.495000", "125254.105000", "125254.715000", "125255.325000", "125255.935000", "125256.545000", "125257.155000", "125257.765000", "125258.375000", "125258.985000", "125259.595000", "125300.205000", "125300.815000", "125301.425000", "125302.035000", "125302.645000", "125303.255000", "125303.865000", "125304.475000", "125305.085000", "125305.695000", "125306.305000", "125306.915000", "125307.525000", "125308.135000", "125308.745000", "125309.355000", "125309.965000", "125310.575000", "125311.185000", "125311.795000", "125312.405000", "125313.015000", "125313.625000", "125314.235000", "125314.845000", "125315.455000", "125316.065000", "125316.675000", "125317.285000", "125317.895000", "125318.505000", "125319.115000", "125319.725000", "125320.335000", "125320.945000", "125321.555000", "125322.165000", "125322.775000", "125323.385000", "125323.995000", "125324.605000", "125325.215000", "125325.825000", "125326.435000", "125327.045000", "125327.655000", "125328.265000", "125328.875000", "125329.485000", "125330.095000", "125330.705000", "125331.315000", "125331.925000", "125332.535000", "125333.145000", "125333.755000", "125334.365000", "125334.975000", "125335.585000", "125336.195000", "125336.805000", "125337.415000", "125338.025000", "125338.635000", "125339.245000", "125339.855000", "125340.465000", "125341.075000", "125341.685000", "125342.295000", "125342.905000", "125343.515000", "125344.125000", "125344.735000", "125345.345000", "125345.955000", "125346.565000", "125347.175000", "125347.785000", "125348.395000", "125349.005000", "125349.615000", "125350.225000", "125350.835000", "125351.445000", "125352.055000", "125352.665000", "125353.275000", "125353.885000", "125354.495000", "125355.105000", "125355.715000", "125356.325000", "125356.935000", "125357.545000", "125358.155000", "125358.765000", "125359.375000", "125359.985000", "125400.595000", "125401.205000", "125401.815000", "125402.425000", "125403.035000", "125403.645000", "125404.255000", "125404.865000", "125405.475000", "125406.085000", "125406.695000", "125407.305000", "125407.915000", "125408.525000", "125409.135000", "125409.745000", "125410.355000", "125410.965000", "125411.575000", "125412.185000", "125412.795000", "125413.405000", "125414.015000", "125414.625000", "125415.235000", "125415.845000", "125416.455000", "125417.065000", "125417.675000", "125418.285000", "125418.895000", "125419.505000", "125420.115000", "125420.725000", "125421.335000", "125421.945000", "125422.555000", "125423.165000", "125423.775000", "125424.385000", "125424.995000", "125425.605000", "125426.215000", "125426.825000", "125427.435000", "125428.045000", "125428.655000", "125429.265000", "125429.875000", "125430.485000", "125431.095000", "125431.705000", "125432.315000", "125432.925000", "125433.535000", "125434.145000", "125434.755000", "125435.365000", "125435.975000", "125436.585000", "125437.195000", "125437.805000", "125438.415000", "125439.025000", "125439.635000", "125440.245000", "125440.855000", "125441.465000", "125442.075000", "125442.685000", "125443.295000", "125443.905000", "125444.515000", "125445.125000", "125445.735000", "125446.345000", "125446.955000", "125447.565000", "125448.175000", "125448.785000", "125449.395000", "125450.005000", "125450.615000", "125451.225000", "125451.835000", "125452.445000", "125453.055000", "125453.665000", "125454.275000", "125454.885000", "125455.495000", "125456.105000", "125456.715000", "125457.325000", "125457.935000", "125458.545000", "125459.155000", "125459.765000", "125500.375000", "125500.985000", "125501.595000", "125502.205000", "125502.815000", "125503.425000", "125504.035000", "125504.645000", "125505.255000", "125505.865000", "125506.475000", "125507.085000", "125507.695000", "125508.305000", "125508.915000", "125509.525000", "125510.135000", "125510.745000", "125511.355000", "125511.965000", "125512.575000", "125513.185000", "125513.795000", "125514.405000", "125515.015000", "125515.625000", "125516.235000", "125516.845000", "125517.455000", "125518.065000", "125518.675000", "125519.285000", "125519.895000", "125520.505000", "125521.115000", "125521.725000", "125522.335000", "125522.945000", "125523.555000", "125524.165000", "125524.775000", "125525.385000", "125525.995000", "125526.605000", "125527.215000", "125527.825000", "125528.435000", "125529.045000", "125529.655000", "125530.265000", "125530.875000", "125531.485000", "125532.095000", "125532.705000", "125533.315000", "125533.925000", "125534.535000", "125535.145000", "125535.755000", "125536.365000", "125536.975000", "125537.585000", "125538.195000", "125538.805000", "125539.415000", "125540.025000", "125540.635000", "125541.245000", "125541.855000", "125542.465000", "125543.075000", "125543.685000", "125544.295000", "125544.905000", "125545.515000", "125546.125000", "125546.735000", "125547.345000", "125547.955000", "125548.565000", "125549.175000", "125549.785000", "125550.395000", "125551.005000", "125551.615000", "125552.225000", "125552.835000", "125553.445000", "125554.055000", "125554.665000", "125555.275000", "125555.885000", "125556.495000", "125557.105000", "125557.715000", "125558.325000", "125558.935000", "125559.545000", "125600.155000", "125600.765000", "125601.375000", "125601.985000", "125602.595000", "125603.205000", "125603.815000", "125604.425000", "125605.035000", "125605.645000", "125606.255000", "125606.865000", "125607.475000", "125608.085000", "125608.695000", "125609.305000", "125609.915000", "125610.525000", "125611.135000", "125611.745000", "125612.355000", "125612.965000", "125613.575000", "125614.185000", "125614.795000"], "ContentTime": ["125230.734000", "125230.737000", "125230.739000", "125230.742000", "125230.744000", "125230.747000", "125230.749000", "125230.751000", "125230.754000", "125230.761000", "125230.763000", "125230.765000", "125230.768000", "125230.770000", "125230.773000", "125230.775000", "125230.777000", "125230.780000", "125230.782000", "125230.785000", "125230.787000", "125230.789000", "125230.797000", "125230.800000", "125230.802000", "125230.805000", "125230.807000", "125230.810000", "125230.812000", "125230.815000", "125230.817000", "125230.820000", "125230.822000", "125230.824000", "125230.827000", "125230.829000", "125230.832000", "125230.834000", "125230.837000", "125230.839000", "125230.841000", "125250.729000", "125250.732000", "125250.734000", "125250.737000", "125250.739000", "125250.741000", "125250.744000", "125250.746000", "125250.749000", "125250.751000", "125250.753000", "125250.756000", "125250.758000", "125250.761000", "125250.763000", "125250.766000", "125250.768000", "125250.770000", "125250.773000", "125250.775000", "125250.777000", "125250.780000", "125250.782000", "125250.785000", "125250.787000", "125250.789000", "125250.792000", "125250.794000", "125250.797000", "125250.799000", "125250.802000", "125250.804000", "125250.806000", "125310.729000", "125310.732000", "125310.734000", "125310.737000", "125310.739000", "125310.741000", "125310.744000", "125310.747000", "125310.749000", "125310.752000", "125310.754000", "125310.756000", "125310.759000", "125310.768000", "125310.770000", "125310.772000", "125310.775000", "125310.777000", "125310.780000", "125310.782000", "125310.785000", "125310.787000", "125310.789000", "125310.792000", "125310.794000", "125310.796000", "125310.799000", "125310.801000", "125310.804000", "125310.806000", "125310.809000", "125310.811000", "125330.729000", "125330.732000", "125330.734000", "125330.737000", "125330.739000", "125330.742000", "125330.744000", "125330.746000", "125330.749000", "125330.751000", "125330.754000", "125330.756000", "125330.758000", "125330.761000", "125330.763000", "125330.766000", "125330.768000", "125330.771000", "125330.774000", "125330.776000", "125330.779000", "125330.781000", "125330.783000", "125330.786000", "125330.788000", "125330.791000", "125330.793000", "125330.801000", "125330.803000", "125330.805000", "125330.808000", "125330.810000", "125330.812000", "125350.729000", "125350.732000", "125350.734000", "125350.737000", "125350.739000", "125350.742000", "125350.752000", "125350.754000", "125350.756000", "125350.759000", "125350.761000", "125350.764000", "125350.766000", "125350.768000", "125350.771000", "125350.773000", "125350.775000", "125350.778000", "125350.780000", "125350.783000", "125350.785000", "125350.788000", "125350.790000", "125350.792000", "125350.795000", "125350.797000", "125350.800000", "125350.802000", "125350.805000", "125350.807000", "125350.809000", "125350.812000", "125350.814000", "125410.729000", "125410.732000", "125410.734000", "125410.736000", "125410.739000", "125410.742000", "125410.744000", "125410.746000", "125410.749000", "125410.751000", "125410.753000", "125410.756000", "125410.758000", "125410.761000", "125410.763000", "125410.765000", "125410.768000", "125410.771000", "125410.773000", "125410.775000", "125410.778000", "125410.780000", "125410.783000", "125410.785000", "125410.788000", "125410.790000", "125410.792000", "125410.795000", "125410.797000", "125410.800000", "125410.802000", "125410.804000", "125410.807000", "125430.729000", "125430.732000", "125430.734000", "125430.737000", "125430.739000", "125430.741000", "125430.744000", "125430.746000", "125430.748000", "125430.751000", "125430.753000", "125430.756000", "125430.758000", "125430.760000", "125430.763000", "125430.765000", "125430.767000", "125430.770000", "125430.772000", "125430.775000", "125430.777000", "125430.779000", "125430.782000", "125430.784000", "125430.786000", "125430.789000", "125430.791000", "125430.794000", "125430.796000", "125430.798000", "125430.801000", "125430.803000", "125430.806000", "125450.729000", "125450.732000", "125450.735000", "125450.737000", "125450.739000", "125450.742000", "125450.744000", "125450.747000", "125450.749000", "125450.751000", "125450.754000", "125450.756000", "125450.759000", "125450.761000", "125450.764000", "125450.766000", "125450.769000", "125450.780000", "125450.783000", "125450.785000", "125450.788000", "125450.790000", "125450.793000", "125450.795000", "125450.798000", "125450.833000", "125450.835000", "125450.838000", "125450.840000", "125450.843000", "125450.851000", "125450.853000", "125510.729000", "125510.732000", "125510.734000", "125510.737000", "125510.739000", "125510.742000", "125510.744000", "125510.747000", "125510.749000", "125510.752000", "125510.754000", "125510.757000", "125510.760000", "125510.762000", "125510.765000", "125510.767000", "125510.769000", "125510.772000", "125510.774000", "125510.777000", "125510.779000", "125510.781000", "125510.784000", "125510.786000", "125510.789000", "125510.794000", "125510.797000", "125510.799000", "125510.833000", "125510.836000", "125510.838000", "125510.841000", "125510.843000", "125530.729000", "125530.732000", "125530.734000", "125530.737000", "125530.739000", "125530.741000", "125530.744000", "125530.746000", "125530.749000", "125530.751000", "125530.753000", "125530.756000", "125530.758000", "125530.761000", "125530.763000", "125530.766000", "125530.768000", "125530.771000", "125530.773000", "125530.776000", "125530.778000", "125530.780000", "125530.783000", "125530.785000", "125530.787000", "125530.790000", "125530.792000", "125530.795000", "125530.797000", "125530.815000", "125530.818000", "125530.820000", "125530.823000", "125550.729000", "125550.732000", "125550.734000", "125550.736000", "125550.739000", "125550.742000", "125550.744000", "125550.746000", "125550.749000", "125550.751000", "125550.754000", "125550.756000", "125550.758000", "125550.761000", "125550.763000", "125550.765000", "125550.768000", "125550.770000", "125550.773000", "125550.775000", "125550.778000", "125550.780000", "125550.783000", "125550.785000", "125550.787000", "125550.797000", "125550.867000", "125550.870000", "125550.872000", "125550.875000", "125550.877000", "125550.880000", "125550.882000", "125610.729000", "125610.732000", "125610.734000", "125610.737000", "125610.740000", "125610.742000", "125610.744000", "125610.747000", "125610.749000", "125610.752000", "125610.754000", "125610.756000", "125610.759000", "125610.761000", "125610.764000", "125610.766000", "125610.769000", "125610.771000", "125610.774000", "125610.776000", "125610.779000", "125610.781000", "125610.783000", "125610.786000", "125610.788000", "125610.791000", "125610.793000", "125610.795000", "125610.798000", "125610.816000", "125610.818000", "125610.821000", "125610.823000", "125616.711000", "125616.714000", "125616.716000", "125616.718000", "125616.721000", "125616.723000", "125616.726000", "125616.728000", "125616.731000"], "InstanceCreationTime": ["125230.734000", "125230.737000", "125230.739000", "125230.742000", "125230.744000", "125230.747000", "125230.749000", "125230.751000", "125230.754000", "125230.761000", "125230.763000", "125230.765000", "125230.768000", "125230.770000", "125230.773000", "125230.775000", "125230.777000", "125230.780000", "125230.782000", "125230.785000", "125230.787000", "125230.789000", "125230.797000", "125230.800000", "125230.802000", "125230.805000", "125230.807000", "125230.810000", "125230.812000", "125230.815000", "125230.817000", "125230.820000", "125230.822000", "125230.824000", "125230.827000", "125230.829000", "125230.832000", "125230.834000", "125230.837000", "125230.839000", "125230.841000", "125250.729000", "125250.732000", "125250.734000", "125250.737000", "125250.739000", "125250.741000", "125250.744000", "125250.746000", "125250.749000", "125250.751000", "125250.753000", "125250.756000", "125250.758000", "125250.761000", "125250.763000", "125250.766000", "125250.768000", "125250.770000", "125250.773000", "125250.775000", "125250.777000", "125250.780000", "125250.782000", "125250.785000", "125250.787000", "125250.789000", "125250.792000", "125250.794000", "125250.797000", "125250.799000", "125250.802000", "125250.804000", "125250.806000", "125310.729000", "125310.732000", "125310.734000", "125310.737000", "125310.739000", "125310.741000", "125310.744000", "125310.747000", "125310.749000", "125310.752000", "125310.754000", "125310.756000", "125310.759000", "125310.768000", "125310.770000", "125310.772000", "125310.775000", "125310.777000", "125310.780000", "125310.782000", "125310.785000", "125310.787000", "125310.789000", "125310.792000", "125310.794000", "125310.796000", "125310.799000", "125310.801000", "125310.804000", "125310.806000", "125310.809000", "125310.811000", "125330.729000", "125330.732000", "125330.734000", "125330.737000", "125330.739000", "125330.742000", "125330.744000", "125330.746000", "125330.749000", "125330.751000", "125330.754000", "125330.756000", "125330.758000", "125330.761000", "125330.763000", "125330.766000", "125330.768000", "125330.771000", "125330.774000", "125330.776000", "125330.779000", "125330.781000", "125330.783000", "125330.786000", "125330.788000", "125330.791000", "125330.793000", "125330.801000", "125330.803000", "125330.805000", "125330.808000", "125330.810000", "125330.812000", "125350.729000", "125350.732000", "125350.734000", "125350.737000", "125350.739000", "125350.742000", "125350.752000", "125350.754000", "125350.756000", "125350.759000", "125350.761000", "125350.764000", "125350.766000", "125350.768000", "125350.771000", "125350.773000", "125350.775000", "125350.778000", "125350.780000", "125350.783000", "125350.785000", "125350.788000", "125350.790000", "125350.792000", "125350.795000", "125350.797000", "125350.800000", "125350.802000", "125350.805000", "125350.807000", "125350.809000", "125350.812000", "125350.814000", "125410.729000", "125410.732000", "125410.734000", "125410.736000", "125410.739000", "125410.742000", "125410.744000", "125410.746000", "125410.749000", "125410.751000", "125410.753000", "125410.756000", "125410.758000", "125410.761000", "125410.763000", "125410.765000", "125410.768000", "125410.771000", "125410.773000", "125410.775000", "125410.778000", "125410.780000", "125410.783000", "125410.785000", "125410.788000", "125410.790000", "125410.792000", "125410.795000", "125410.797000", "125410.800000", "125410.802000", "125410.804000", "125410.807000", "125430.729000", "125430.732000", "125430.734000", "125430.737000", "125430.739000", "125430.741000", "125430.744000", "125430.746000", "125430.748000", "125430.751000", "125430.753000", "125430.756000", "125430.758000", "125430.760000", "125430.763000", "125430.765000", "125430.767000", "125430.770000", "125430.772000", "125430.775000", "125430.777000", "125430.779000", "125430.782000", "125430.784000", "125430.786000", "125430.789000", "125430.791000", "125430.794000", "125430.796000", "125430.798000", "125430.801000", "125430.803000", "125430.806000", "125450.729000", "125450.732000", "125450.735000", "125450.737000", "125450.739000", "125450.742000", "125450.744000", "125450.747000", "125450.749000", "125450.751000", "125450.754000", "125450.756000", "125450.759000", "125450.761000", "125450.764000", "125450.766000", "125450.769000", "125450.780000", "125450.783000", "125450.785000", "125450.788000", "125450.790000", "125450.793000", "125450.795000", "125450.798000", "125450.833000", "125450.835000", "125450.838000", "125450.840000", "125450.843000", "125450.851000", "125450.853000", "125510.729000", "125510.732000", "125510.734000", "125510.737000", "125510.739000", "125510.742000", "125510.744000", "125510.747000", "125510.749000", "125510.752000", "125510.754000", "125510.757000", "125510.760000", "125510.762000", "125510.765000", "125510.767000", "125510.769000", "125510.772000", "125510.774000", "125510.777000", "125510.779000", "125510.781000", "125510.784000", "125510.786000", "125510.789000", "125510.794000", "125510.797000", "125510.799000", "125510.833000", "125510.836000", "125510.838000", "125510.841000", "125510.843000", "125530.729000", "125530.732000", "125530.734000", "125530.737000", "125530.739000", "125530.741000", "125530.744000", "125530.746000", "125530.749000", "125530.751000", "125530.753000", "125530.756000", "125530.758000", "125530.761000", "125530.763000", "125530.766000", "125530.768000", "125530.771000", "125530.773000", "125530.776000", "125530.778000", "125530.780000", "125530.783000", "125530.785000", "125530.787000", "125530.790000", "125530.792000", "125530.795000", "125530.797000", "125530.815000", "125530.818000", "125530.820000", "125530.823000", "125550.729000", "125550.732000", "125550.734000", "125550.736000", "125550.739000", "125550.742000", "125550.744000", "125550.746000", "125550.749000", "125550.751000", "125550.754000", "125550.756000", "125550.758000", "125550.761000", "125550.763000", "125550.765000", "125550.768000", "125550.770000", "125550.773000", "125550.775000", "125550.778000", "125550.780000", "125550.783000", "125550.785000", "125550.787000", "125550.797000", "125550.867000", "125550.870000", "125550.872000", "125550.875000", "125550.877000", "125550.880000", "125550.882000", "125610.729000", "125610.732000", "125610.734000", "125610.737000", "125610.740000", "125610.742000", "125610.744000", "125610.747000", "125610.749000", "125610.752000", "125610.754000", "125610.756000", "125610.759000", "125610.761000", "125610.764000", "125610.766000", "125610.769000", "125610.771000", "125610.774000", "125610.776000", "125610.779000", "125610.781000", "125610.783000", "125610.786000", "125610.788000", "125610.791000", "125610.793000", "125610.795000", "125610.798000", "125610.816000", "125610.818000", "125610.821000", "125610.823000", "125616.711000", "125616.714000", "125616.716000", "125616.718000", "125616.721000", "125616.723000", "125616.726000", "125616.728000", "125616.731000"], "InstanceNumber": [1, 2, 3, 4, 5, 6, 7, 8, 9, 10, 11, 12, 13, 14, 15, 16, 17, 18, 19, 20, 21, 22, 23, 24, 25, 26, 27, 28, 29, 30, 31, 32, 33, 34, 35, 36, 37, 38, 39, 40, 41, 42, 43, 44, 45, 46, 47, 48, 49, 50, 51, 52, 53, 54, 55, 56, 57, 58, 59, 60, 61, 62, 63, 64, 65, 66, 67, 68, 69, 70, 71, 72, 73, 74, 75, 76, 77, 78, 79, 80, 81, 82, 83, 84, 85, 86, 87, 88, 89, 90, 91, 92, 93, 94, 95, 96, 97, 98, 99, 100, 101, 102, 103, 104, 105, 106, 107, 108, 109, 110, 111, 112, 113, 114, 115, 116, 117, 118, 119, 120, 121, 122, 123, 124, 125, 126, 127, 128, 129, 130, 131, 132, 133, 134, 135, 136, 137, 138, 139, 140, 141, 142, 143, 144, 145, 146, 147, 148, 149, 150, 151, 152, 153, 154, 155, 156, 157, 158, 159, 160, 161, 162, 163, 164, 165, 166, 167, 168, 169, 170, 171, 172, 173, 174, 175, 176, 177, 178, 179, 180, 181, 182, 183, 184, 185, 186, 187, 188, 189, 190, 191, 192, 193, 194, 195, 196, 197, 198, 199, 200, 201, 202, 203, 204, 205, 206, 207, 208, 209, 210, 211, 212, 213, 214, 215, 216, 217, 218, 219, 220, 221, 222, 223, 224, 225, 226, 227, 228, 229, 230, 231, 232, 233, 234, 235, 236, 237, 238, 239, 240, 241, 242, 243, 244, 245, 246, 247, 248, 249, 250, 251, 252, 253, 254, 255, 256, 257, 258, 259, 260, 261, 262, 263, 264, 265, 266, 267, 268, 269, 270, 271, 272, 273, 274, 275, 276, 277, 278, 279, 280, 281, 282, 283, 284, 285, 286, 287, 288, 289, 290, 291, 292, 293, 294, 295, 296, 297, 298, 299, 300, 301, 302, 303, 304, 305, 306, 307, 308, 309, 310, 311, 312, 313, 314, 315, 316, 317, 318, 319, 320, 321, 322, 323, 324, 325, 326, 327, 328, 329, 330, 331, 332, 333, 334, 335, 336, 337, 338, 339, 340, 341, 342, 343, 344, 345, 346, 347, 348, 349, 350, 351, 352, 353, 354, 355, 356, 357, 358, 359, 360, 361, 362, 363, 364, 365, 366, 367, 368, 369, 370, 371, 372, 373, 374, 375, 376, 377, 378, 379, 380, 381, 382, 383, 384, 385, 386, 387, 388, 389, 390, 391, 392, 393, 394, 395, 396, 397, 398, 399, 400, 401, 402, 403, 404, 405, 406, 407, 408, 409, 410, 411], "LargestImagePixelValue": [561, 541, 533, 521, 516, 519, 529, 514, 517, 515, 514, 512, 520, 516, 517, 514, 515, 513, 511, 513, 510, 514, 515, 517, 513, 523, 514, 512, 515, 514, 517, 515, 519, 514, 512, 509, 519, 512, 513, 509, 516, 513, 510, 512, 508, 516, 516, 515, 512, 510, 516, 511, 513, 511, 512, 508, 508, 512, 510, 506, 507, 506, 514, 509, 514, 511, 510, 509, 511, 508, 512, 507, 509, 507, 507, 507, 505, 510, 519, 514, 508, 511, 512, 516, 515, 515, 512, 510, 501, 503, 502, 504, 506, 50