{"AcquisitionMatrixPE": 64, "AcquisitionNumber": 1, "AcquisitionTime": "12:04:20.782500", "BandwidthPerPixelPhaseEncode": 28.935, "BaseResolution": 64, "BodyPartExamined": "BRAIN", "CoilString": "HC2_4_6_7", "ConsistencyInfo": "N4_VE11E_LATEST_20181129", "ConversionSoftware": "dcm2niix", "ConversionSoftwareVersion": "v1.0.20190902", "DerivedVendorReportedEchoSpacing": 0.000540003, "DeviceSerialNumber": "166182", "DwellTime": 3.4e-06, "EchoTime": 0.032, "EchoTrainLength": 64, "EffectiveEchoSpacing": 0.000540003, "FlipAngle": 40, "ImageOrientationPatientDICOM": [0.999658, -0.018162, -0.0188122, 0.0184963, 0.999671, 0.0177536], "ImageType": ["ORIGINAL", "PRIMARY", "M", "ND", "NORM", "MOSAIC"], "ImagingFrequency": 123.256, "InPlanePhaseEncodingDirectionDICOM": "COL", "InstitutionAddress": "PEARSE_STREET_._City_District_IE_D2", "InstitutionName": "TCIN", "InstitutionalDepartmentName": "MRI", "MRAcquisitionType": "2D", "MagneticFieldStrength": 3, "Manufacturer": "Siemens", "ManufacturersModelName": "Prisma", "Modality": "MR", "MultibandAccelerationFactor": 4, "PartialFourier": 1, "PatientPosition": "HFS", "PercentPhaseFOV": 100, "PhaseEncodingDirection": "j-", "PhaseEncodingSteps": 64, "PhaseResolution": 1, "PixelBandwidth": 2300, "ProcedureStepDescription": "Rhodri_Head_BOLD", "ProtocolName": "cmrr_mbep2d_Pictures_AP_RDS", "PulseSequenceDetails": "%SiemensSeq%_ep2d_bold", "ReceiveCoilActiveElements": "HC2,4,6,7", "ReceiveCoilName": "HeadNeck_64", "ReconMatrixPE": 64, "RefLinesPE": 12, "RepetitionTime": 0.61, "SAR": 0.228875, "ScanOptions": "FS", "ScanningSequence": "EP", "SequenceName": "_epfid2d1_64", "SequenceVariant": "SK", "SeriesDescription": "cmrr_mbep2d_Pictures_AP_RDS", "SeriesNumber": 8, "ShimSetting": [-3617, -7507, 3805, 912, 61, 106, 189, 20], "SliceThickness": 3, "SliceTiming": [0.26, 0, 0.3275, 0.065, 0.3925, 0.13, 0.4575, 0.195, 0.5225, 0.26, 0, 0.3275, 0.065, 0.3925, 0.13, 0.4575, 0.195, 0.5225, 0.26, 0, 0.3275, 0.065, 0.3925, 0.13, 0.4575, 0.195, 0.5225, 0.26, 0, 0.3275, 0.065, 0.3925, 0.13, 0.4575, 0.195, 0.5225], "SoftwareVersions": "syngo_MR_E11", "SpacingBetweenSlices": 3.3, "StationName": "AWP166182", "TaskName": "pictures", "TotalReadoutTime": 0.0340202, "TxRefAmp": 264.385, "dcmmeta_affine": [[-2.998974084854126, 0.05548890307545662, -0.06099586933851242, 96.71871185302734], [0.05448588356375694, 2.999013900756836, 0.05971520021557808, -101.41194152832031], [-0.05643666163086891, -0.053260888904333115, 3.298895835876465, -89.50050354003906], [0.0, 0.0, 0.0, 1.0]], "dcmmeta_reorient_transform": [[0.0, -1.0, 0.0, 63.0], [1.0, 0.0, 0.0, 0.0], [0.0, 0.0, 1.0, 0.0], [0.0, 0.0, 0.0, 1.0]], "dcmmeta_shape": [64, 64, 36, 328], "dcmmeta_slice_dim": 2, "dcmmeta_version": 0.6, "global": {"const": {"AcquisitionMatrix": [64, 0, 0, 64], "AngioFlag": "N", "BitsAllocated": 16, "BitsStored": 12, "BodyPartExamined": "BRAIN", "Columns": 384, "EchoNumbers": 1, "EchoTime": 32.0, "EchoTrainLength": 64, "FlipAngle": 40.0, "HighBit": 11, "ImageOrientationPatient": [0.99965806331475, -0.0181619609768, -0.0188122200519, 0.0184963007695, 0.99967129372999, 0.01775362920783], "ImagePositionPatient": [-588.92860794356, -558.65041536158, -92.347816981416], "ImageType": ["ORIGINAL", "PRIMARY", "M", "ND", "NORM", "MOSAIC"], "ImagedNucleus": "1H", "ImagingFrequency": 123.256034, "InPlanePhaseEncodingDirection": "COL", "MRAcquisitionType": "2D", "MagneticFieldStrength": 3.0, "Manufacturer": "SIEMENS", "ManufacturerModelName": "Prisma", "Modality": "MR", "NumberOfAverages": 1.0, "NumberOfPhaseEncodingSteps": 64, "PercentPhaseFieldOfView": 100.0, "PercentSampling": 100.0, "PerformedProcedureStepStartTime": "115523.423000", "PhotometricInterpretation": "MONOCHROME2", "PixelBandwidth": 2300.0, "PixelRepresentation": 0, "PixelSpacing": [3.0, 3.0], "ProtocolName": "cmrr_mbep2d_Pictures_AP_RDS", "RepetitionTime": 610.0, "Rows": 384, "SAR": 0.22887537121234, "SamplesPerPixel": 1, "ScanOptions": "FS", "ScanningSequence": "EP", "SequenceName": "*epfid2d1_64", "SequenceVariant": "SK", "SeriesDescription": "cmrr_mbep2d_Pictures_AP_RDS", "SeriesNumber": 8, "SeriesTime": "120444.672000", "SliceLocation": -93.093368503862, "SliceThickness": 3.0, "SmallestImagePixelValue": 0, "SoftwareVersions": "syngo MR E11", "SpacingBetweenSlices": 3.3000001025447, "SpecificCharacterSet": "ISO_IR 100", "StudyID": "1", "StudyTime": "115523.350000", "TransmitCoilName": "Body", "VariableFlipAngleFlag": "N", "WindowCenterWidthExplanation": "Algo1"}, "slices": {}}, "time": {"samples": {"AcquisitionNumber": [1, 2, 3, 4, 5, 6, 7, 8, 9, 10, 11, 12, 13, 14, 15, 16, 17, 18, 19, 20, 21, 22, 23, 24, 25, 26, 27, 28, 29, 30, 31, 32, 33, 34, 35, 36, 37, 38, 39, 40, 41, 42, 43, 44, 45, 46, 47, 48, 49, 50, 51, 52, 53, 54, 55, 56, 57, 58, 59, 60, 61, 62, 63, 64, 65, 66, 67, 68, 69, 70, 71, 72, 73, 74, 75, 76, 77, 78, 79, 80, 81, 82, 83, 84, 85, 86, 87, 88, 89, 90, 91, 92, 93, 94, 95, 96, 97, 98, 99, 100, 101, 102, 103, 104, 105, 106, 107, 108, 109, 110, 111, 112, 113, 114, 115, 116, 117, 118, 119, 120, 121, 122, 123, 124, 125, 126, 127, 128, 129, 130, 131, 132, 133, 134, 135, 136, 137, 138, 139, 140, 141, 142, 143, 144, 145, 146, 147, 148, 149, 150, 151, 152, 153, 154, 155, 156, 157, 158, 159, 160, 161, 162, 163, 164, 165, 166, 167, 168, 169, 170, 171, 172, 173, 174, 175, 176, 177, 178, 179, 180, 181, 182, 183, 184, 185, 186, 187, 188, 189, 190, 191, 192, 193, 194, 195, 196, 197, 198, 199, 200, 201, 202, 203, 204, 205, 206, 207, 208, 209, 210, 211, 212, 213, 214, 215, 216, 217, 218, 219, 220, 221, 222, 223, 224, 225, 226, 227, 228, 229, 230, 231, 232, 233, 234, 235, 236, 237, 238, 239, 240, 241, 242, 243, 244, 245, 246, 247, 248, 249, 250, 251, 252, 253, 254, 255, 256, 257, 258, 259, 260, 261, 262, 263, 264, 265, 266, 267, 268, 269, 270, 271, 272, 273, 274, 275, 276, 277, 278, 279, 280, 281, 282, 283, 284, 285, 286, 287, 288, 289, 290, 291, 292, 293, 294, 295, 296, 297, 298, 299, 300, 301, 302, 303, 304, 305, 306, 307, 308, 309, 310, 311, 312, 313, 314, 315, 316, 317, 318, 319, 320, 321, 322, 323, 324, 325, 326, 327, 328], "AcquisitionTime": ["120420.782500", "120421.392500", "120422.002500", "120422.612500", "120423.222500", "120423.832500", "120424.442500", "120425.052500", "120425.662500", "120426.272500", "120426.882500", "120427.492500", "120428.102500", "120428.712500", "120429.322500", "120429.932500", "120430.542500", "120431.152500", "120431.762500", "120432.372500", "120432.982500", "120433.592500", "120434.202500", "120434.812500", "120435.422500", "120436.032500", "120436.642500", "120437.252500", "120437.862500", "120438.472500", "120439.082500", "120439.692500", "120440.302500", "120440.912500", "120441.522500", "120442.132500", "120442.742500", "120443.352500", "120443.962500", "120444.572500", "120445.182500", "120445.792500", "120446.402500", "120447.012500", "120447.622500", "120448.232500", "120448.842500", "120449.452500", "120450.062500", "120450.672500", "120451.282500", "120451.892500", "120452.502500", "120453.112500", "120453.722500", "120454.332500", "120454.942500", "120455.552500", "120456.162500", "120456.772500", "120457.382500", "120457.992500", "120458.602500", "120459.212500", "120459.822500", "120500.432500", "120501.042500", "120501.652500", "120502.262500", "120502.872500", "120503.482500", "120504.092500", "120504.702500", "120505.312500", "120505.922500", "120506.532500", "120507.142500", "120507.752500", "120508.362500", "120508.972500", "120509.582500", "120510.192500", "120510.802500", "120511.412500", "120512.022500", "120512.632500", "120513.242500", "120513.852500", "120514.462500", "120515.072500", "120515.682500", "120516.292500", "120516.902500", "120517.512500", "120518.122500", "120518.732500", "120519.342500", "120519.952500", "120520.562500", "120521.172500", "120521.782500", "120522.392500", "120523.002500", "120523.612500", "120524.222500", "120524.832500", "120525.442500", "120526.052500", "120526.662500", "120527.272500", "120527.882500", "120528.492500", "120529.102500", "120529.712500", "120530.322500", "120530.932500", "120531.542500", "120532.152500", "120532.762500", "120533.372500", "120533.982500", "120534.592500", "120535.202500", "120535.812500", "120536.422500", "120537.032500", "120537.642500", "120538.252500", "120538.862500", "120539.472500", "120540.082500", "120540.692500", "120541.302500", "120541.912500", "120542.522500", "120543.132500", "120543.742500", "120544.352500", "120544.962500", "120545.572500", "120546.182500", "120546.792500", "120547.402500", "120548.012500", "120548.622500", "120549.232500", "120549.842500", "120550.452500", "120551.062500", "120551.672500", "120552.282500", "120552.892500", "120553.502500", "120554.112500", "120554.722500", "120555.332500", "120555.942500", "120556.552500", "120557.162500", "120557.772500", "120558.382500", "120558.992500", "120559.602500", "120600.212500", "120600.822500", "120601.432500", "120602.042500", "120602.652500", "120603.262500", "120603.872500", "120604.482500", "120605.092500", "120605.702500", "120606.312500", "120606.922500", "120607.532500", "120608.142500", "120608.752500", "120609.362500", "120609.972500", "120610.582500", "120611.192500", "120611.802500", "120612.412500", "120613.022500", "120613.632500", "120614.242500", "120614.852500", "120615.462500", "120616.072500", "120616.682500", "120617.292500", "120617.902500", "120618.512500", "120619.122500", "120619.732500", "120620.342500", "120620.952500", "120621.562500", "120622.172500", "120622.782500", "120623.392500", "120624.002500", "120624.612500", "120625.222500", "120625.832500", "120626.442500", "120627.052500", "120627.662500", "120628.272500", "120628.882500", "120629.492500", "120630.102500", "120630.712500", "120631.322500", "120631.932500", "120632.542500", "120633.152500", "120633.762500", "120634.372500", "120634.982500", "120635.592500", "120636.202500", "120636.812500", "120637.422500", "120638.032500", "120638.642500", "120639.252500", "120639.862500", "120640.472500", "120641.082500", "120641.692500", "120642.302500", "120642.912500", "120643.522500", "120644.132500", "120644.742500", "120645.352500", "120645.962500", "120646.572500", "120647.182500", "120647.792500", "120648.402500", "120649.012500", "120649.622500", "120650.232500", "120650.842500", "120651.452500", "120652.062500", "120652.672500", "120653.282500", "120653.892500", "120654.502500", "120655.112500", "120655.722500", "120656.332500", "120656.942500", "120657.552500", "120658.162500", "120658.772500", "120659.382500", "120659.992500", "120700.602500", "120701.212500", "120701.822500", "120702.432500", "120703.042500", "120703.652500", "120704.262500", "120704.872500", "120705.482500", "120706.092500", "120706.702500", "120707.312500", "120707.922500", "120708.532500", "120709.142500", "120709.752500", "120710.362500", "120710.972500", "120711.582500", "120712.192500", "120712.802500", "120713.412500", "120714.022500", "120714.632500", "120715.242500", "120715.852500", "120716.462500", "120717.072500", "120717.682500", "120718.292500", "120718.902500", "120719.512500", "120720.122500", "120720.732500", "120721.342500", "120721.952500", "120722.562500", "120723.172500", "120723.782500", "120724.392500", "120725.002500", "120725.612500", "120726.222500", "120726.832500", "120727.442500", "120728.052500", "120728.662500", "120729.272500", "120729.882500", "120730.492500", "120731.102500", "120731.712500", "120732.322500", "120732.932500", "120733.542500", "120734.152500", "120734.762500", "120735.372500", "120735.982500", "120736.592500", "120737.202500", "120737.812500", "120738.422500", "120739.032500", "120739.642500", "120740.252500"], "ContentTime": ["120444.675000", "120444.679000", "120444.681000", "120444.683000", "120444.686000", "120444.688000", "120444.691000", "120444.693000", "120444.695000", "120444.698000", "120444.700000", "120444.705000", "120444.707000", "120444.709000", "120444.712000", "120444.714000", "120444.722000", "120444.724000", "120444.727000", "120444.729000", "120444.732000", "120444.734000", "120444.736000", "120444.739000", "120444.741000", "120444.743000", "120444.746000", "120444.748000", "120444.751000", "120444.753000", "120444.755000", "120444.758000", "120444.760000", "120444.762000", "120444.765000", "120444.767000", "120444.769000", "120444.772000", "120504.671000", "120504.674000", "120504.677000", "120504.679000", "120504.681000", "120504.684000", "120504.686000", "120504.694000", "120504.697000", "120504.699000", "120504.702000", "120504.704000", "120504.707000", "120504.709000", "120504.712000", "120504.714000", "120504.716000", "120504.719000", "120504.721000", "120504.724000", "120504.726000", "120504.729000", "120504.731000", "120504.733000", "120504.736000", "120504.738000", "120504.740000", "120504.743000", "120504.745000", "120504.748000", "120504.750000", "120504.752000", "120504.755000", "120524.671000", "120524.674000", "120524.676000", "120524.678000", "120524.681000", "120524.683000", "120524.686000", "120524.688000", "120524.691000", "120524.694000", "120524.696000", "120524.698000", "120524.701000", "120524.703000", "120524.706000", "120524.708000", "120524.711000", "120524.714000", "120524.716000", "120524.718000", "120524.721000", "120524.723000", "120524.726000", "120524.728000", "120524.730000", "120524.733000", "120524.735000", "120524.738000", "120524.740000", "120524.742000", "120524.745000", "120524.747000", "120544.671000", "120544.674000", "120544.676000", "120544.679000", "120544.681000", "120544.683000", "120544.686000", "120544.688000", "120544.690000", "120544.693000", "120544.695000", "120544.698000", "120544.700000", "120544.703000", "120544.705000", "120544.707000", "120544.710000", "120544.712000", "120544.715000", "120544.718000", "120544.720000", "120544.722000", "120544.725000", "120544.727000", "120544.730000", "120544.732000", "120544.734000", "120544.737000", "120544.739000", "120544.741000", "120544.744000", "120544.746000", "120544.749000", "120604.672000", "120604.675000", "120604.677000", "120604.680000", "120604.682000", "120604.684000", "120604.687000", "120604.689000", "120604.692000", "120604.694000", "120604.697000", "120604.699000", "120604.701000", "120604.704000", "120604.706000", "120604.709000", "120604.711000", "120604.713000", "120604.716000", "120604.718000", "120604.720000", "120604.723000", "120604.725000", "120604.728000", "120604.730000", "120604.732000", "120604.735000", "120604.737000", "120604.740000", "120604.742000", "120604.744000", "120604.747000", "120604.749000", "120624.672000", "120624.675000", "120624.677000", "120624.680000", "120624.682000", "120624.685000", "120624.687000", "120624.689000", "120624.692000", "120624.694000", "120624.696000", "120624.699000", "120624.701000", "120624.704000", "120624.706000", "120624.708000", "120624.711000", "120624.713000", "120624.715000", "120624.718000", "120624.729000", "120624.731000", "120624.733000", "120624.736000", "120624.738000", "120624.741000", "120624.743000", "120624.746000", "120624.748000", "120624.750000", "120624.753000", "120624.755000", "120624.757000", "120644.672000", "120644.675000", "120644.677000", "120644.680000", "120644.682000", "120644.685000", "120644.687000", "120644.689000", "120644.692000", "120644.694000", "120644.697000", "120644.699000", "120644.701000", "120644.704000", "120644.706000", "120644.708000", "120644.711000", "120644.713000", "120644.715000", "120644.718000", "120644.720000", "120644.723000", "120644.725000", "120644.727000", "120644.730000", "120644.732000", "120644.734000", "120644.737000", "120644.739000", "120644.742000", "120644.744000", "120644.746000", "120644.749000", "120704.671000", "120704.674000", "120704.676000", "120704.678000", "120704.681000", "120704.683000", "120704.686000", "120704.688000", "120704.691000", "120704.693000", "120704.695000", "120704.698000", "120704.700000", "120704.702000", "120704.705000", "120704.707000", "120704.710000", "120704.712000", "120704.714000", "120704.717000", "120704.719000", "120704.722000", "120704.724000", "120704.726000", "120704.729000", "120704.731000", "120704.734000", "120704.736000", "120704.739000", "120704.741000", "120704.744000", "120704.746000", "120724.671000", "120724.674000", "120724.677000", "120724.679000", "120724.681000", "120724.684000", "120724.686000", "120724.688000", "120724.691000", "120724.693000", "120724.696000", "120724.698000", "120724.700000", "120724.704000", "120724.706000", "120724.709000", "120724.711000", "120724.713000", "120724.716000", "120724.718000", "120724.721000", "120724.723000", "120724.725000", "120724.728000", "120724.730000", "120724.733000", "120724.735000", "120724.737000", "120724.740000", "120724.742000", "120724.744000", "120724.747000", "120724.749000", "120741.821000", "120741.824000", "120741.826000", "120741.829000", "120741.831000", "120741.834000", "120741.836000", "120741.838000", "120741.841000", "120741.843000", "120741.846000", "120741.848000", "120741.851000", "120741.853000", "120741.858000", "120741.861000", "120741.863000", "120741.866000", "120741.868000", "120741.871000", "120741.877000", "120741.883000", "120741.885000", "120741.888000", "120741.890000", "120741.893000", "120741.895000", "120741.898000"], "InstanceCreationTime": ["120444.675000", "120444.679000", "120444.681000", "120444.683000", "120444.686000", "120444.688000", "120444.691000", "120444.693000", "120444.695000", "120444.698000", "120444.700000", "120444.705000", "120444.707000", "120444.709000", "120444.712000", "120444.714000", "120444.722000", "120444.724000", "120444.727000", "120444.729000", "120444.732000", "120444.734000", "120444.736000", "120444.739000", "120444.741000", "120444.743000", "120444.746000", "120444.748000", "120444.751000", "120444.753000", "120444.755000", "120444.758000", "120444.760000", "120444.762000", "120444.765000", "120444.767000", "120444.769000", "120444.772000", "120504.671000", "120504.674000", "120504.677000", "120504.679000", "120504.681000", "120504.684000", "120504.686000", "120504.694000", "120504.697000", "120504.699000", "120504.702000", "120504.704000", "120504.707000", "120504.709000", "120504.712000", "120504.714000", "120504.716000", "120504.719000", "120504.721000", "120504.724000", "120504.726000", "120504.729000", "120504.731000", "120504.733000", "120504.736000", "120504.738000", "120504.740000", "120504.743000", "120504.745000", "120504.748000", "120504.750000", "120504.752000", "120504.755000", "120524.671000", "120524.674000", "120524.676000", "120524.678000", "120524.681000", "120524.683000", "120524.686000", "120524.688000", "120524.691000", "120524.694000", "120524.696000", "120524.698000", "120524.701000", "120524.703000", "120524.706000", "120524.708000", "120524.711000", "120524.714000", "120524.716000", "120524.718000", "120524.721000", "120524.723000", "120524.726000", "120524.728000", "120524.730000", "120524.733000", "120524.735000", "120524.738000", "120524.740000", "120524.742000", "120524.745000", "120524.747000", "120544.671000", "120544.674000", "120544.676000", "120544.679000", "120544.681000", "120544.683000", "120544.686000", "120544.688000", "120544.690000", "120544.693000", "120544.695000", "120544.698000", "120544.700000", "120544.703000", "120544.705000", "120544.707000", "120544.710000", "120544.712000", "120544.715000", "120544.718000", "120544.720000", "120544.722000", "120544.725000", "120544.727000", "120544.730000", "120544.732000", "120544.734000", "120544.737000", "120544.739000", "120544.741000", "120544.744000", "120544.746000", "120544.749000", "120604.672000", "120604.675000", "120604.677000", "120604.680000", "120604.682000", "120604.684000", "120604.687000", "120604.689000", "120604.692000", "120604.694000", "120604.697000", "120604.699000", "120604.701000", "120604.704000", "120604.706000", "120604.709000", "120604.711000", "120604.713000", "120604.716000", "120604.718000", "120604.720000", "120604.723000", "120604.725000", "120604.728000", "120604.730000", "120604.732000", "120604.735000", "120604.737000", "120604.740000", "120604.742000", "120604.744000", "120604.747000", "120604.749000", "120624.672000", "120624.675000", "120624.677000", "120624.680000", "120624.682000", "120624.685000", "120624.687000", "120624.689000", "120624.692000", "120624.694000", "120624.696000", "120624.699000", "120624.701000", "120624.704000", "120624.706000", "120624.708000", "120624.711000", "120624.713000", "120624.715000", "120624.718000", "120624.729000", "120624.731000", "120624.733000", "120624.736000", "120624.738000", "120624.741000", "120624.743000", "120624.746000", "120624.748000", "120624.750000", "120624.753000", "120624.755000", "120624.757000", "120644.672000", "120644.675000", "120644.677000", "120644.680000", "120644.682000", "120644.685000", "120644.687000", "120644.689000", "120644.692000", "120644.694000", "120644.697000", "120644.699000", "120644.701000", "120644.704000", "120644.706000", "120644.708000", "120644.711000", "120644.713000", "120644.715000", "120644.718000", "120644.720000", "120644.723000", "120644.725000", "120644.727000", "120644.730000", "120644.732000", "120644.734000", "120644.737000", "120644.739000", "120644.742000", "120644.744000", "120644.746000", "120644.749000", "120704.671000", "120704.674000", "120704.676000", "120704.678000", "120704.681000", "120704.683000", "120704.686000", "120704.688000", "120704.691000", "120704.693000", "120704.695000", "120704.698000", "120704.700000", "120704.702000", "120704.705000", "120704.707000", "120704.710000", "120704.712000", "120704.714000", "120704.717000", "120704.719000", "120704.722000", "120704.724000", "120704.726000", "120704.729000", "120704.731000", "120704.734000", "120704.736000", "120704.739000", "120704.741000", "120704.744000", "120704.746000", "120724.671000", "120724.674000", "120724.677000", "120724.679000", "120724.681000", "120724.684000", "120724.686000", "120724.688000", "120724.691000", "120724.693000", "120724.696000", "120724.698000", "120724.700000", "120724.704000", "120724.706000", "120724.709000", "120724.711000", "120724.713000", "120724.716000", "120724.718000", "120724.721000", "120724.723000", "120724.725000", "120724.728000", "120724.730000", "120724.733000", "120724.735000", "120724.737000", "120724.740000", "120724.742000", "120724.744000", "120724.747000", "120724.749000", "120741.821000", "120741.824000", "120741.826000", "120741.829000", "120741.831000", "120741.834000", "120741.836000", "120741.838000", "120741.841000", "120741.843000", "120741.846000", "120741.848000", "120741.851000", "120741.853000", "120741.858000", "120741.861000", "120741.863000", "120741.866000", "120741.868000", "120741.871000", "120741.877000", "120741.883000", "120741.885000", "120741.888000", "120741.890000", "120741.893000", "120741.895000", "120741.898000"], "InstanceNumber": [1, 2, 3, 4, 5, 6, 7, 8, 9, 10, 11, 12, 13, 14, 15, 16, 17, 18, 19, 20, 21, 22, 23, 24, 25, 26, 27, 28, 29, 30, 31, 32, 33, 34, 35, 36, 37, 38, 39, 40, 41, 42, 43, 44, 45, 46, 47, 48, 49, 50, 51, 52, 53, 54, 55, 56, 57, 58, 59, 60, 61, 62, 63, 64, 65, 66, 67, 68, 69, 70, 71, 72, 73, 74, 75, 76, 77, 78, 79, 80, 81, 82, 83, 84, 85, 86, 87, 88, 89, 90, 91, 92, 93, 94, 95, 96, 97, 98, 99, 100, 101, 102, 103, 104, 105, 106, 107, 108, 109, 110, 111, 112, 113, 114, 115, 116, 117, 118, 119, 120, 121, 122, 123, 124, 125, 126, 127, 128, 129, 130, 131, 132, 133, 134, 135, 136, 137, 138, 139, 140, 141, 142, 143, 144, 145, 146, 147, 148, 149, 150, 151, 152, 153, 154, 155, 156, 157, 158, 159, 160, 161, 162, 163, 164, 165, 166, 167, 168, 169, 170, 171, 172, 173, 174, 175, 176, 177, 178, 179, 180, 181, 182, 183, 184, 185, 186, 187, 188, 189, 190, 191, 192, 193, 194, 195, 196, 197, 198, 199, 200, 201, 202, 203, 204, 205, 206, 207, 208, 209, 210, 211, 212, 213, 214, 215, 216, 217, 218, 219, 220, 221, 222, 223, 224, 225, 226, 227, 228, 229, 230, 231, 232, 233, 234, 235, 236, 237, 238, 239, 240, 241, 242, 243, 244, 245, 246, 247, 248, 249, 250, 251, 252, 253, 254, 255, 256, 257, 258, 259, 260, 261, 262, 263, 264, 265, 266, 267, 268, 269, 270, 271, 272, 273, 274, 275, 276, 277, 278, 279, 280, 281, 282, 283, 284, 285, 286, 287, 288, 289, 290, 291, 292, 293, 294, 295, 296, 297, 298, 299, 300, 301, 302, 303, 304, 305, 306, 307, 308, 309, 310, 311, 312, 313, 314, 315, 316, 317, 318, 319, 320, 321, 322, 323, 324, 325, 326, 327, 328], "LargestImagePixelValue": [885, 947, 891, 977, 787, 791, 787, 740, 826, 748, 741, 912, 841, 755, 765, 735, 747, 763, 821, 738, 1040, 840, 790, 833, 976, 1143, 913, 825, 732, 790, 707, 717, 718, 650, 723, 718, 747, 902, 780, 944, 1175, 1168, 984, 828, 816, 985, 747, 829, 790, 759, 823, 840, 809, 910, 1035, 1107, 935, 871, 1168, 1134, 893, 785, 778, 882, 737, 791, 702, 812, 757, 818, 929, 792, 692, 698, 927, 873, 754, 1118, 1119, 879, 989, 1063, 921, 773, 787, 982, 962, 1088, 876, 778, 791, 717, 801, 1094, 745, 734, 724, 691, 921, 1150, 1049, 1031, 858, 763, 1113, 1047, 1187, 924, 965, 833, 778, 1004, 821, 764, 717, 777, 866, 1041, 902, 910, 1066, 863, 819, 756, 740, 748, 689, 805, 760, 713, 753, 762, 800, 864, 798, 833, 892, 909, 867, 746, 975, 777, 1066, 881, 904, 839, 796, 828, 771, 1037, 866, 898, 875, 765, 817, 909, 1095, 1176, 928, 863, 794, 746, 719, 747, 817, 762, 886, 763, 758, 744, 751, 705, 720, 932, 748, 786, 901, 802, 798, 812, 741, 779, 807, 784, 804, 805, 869, 805, 965, 890, 810, 858, 917, 1143, 1043, 1027, 1218, 1036, 1020, 980, 796, 773, 819, 910, 833, 763, 887, 778, 787, 793, 800, 797, 798, 809, 801, 898, 782, 752, 815, 752, 770, 747, 802, 791, 744, 737, 768, 760, 811, 875, 783, 890, 809, 1149, 989, 1026, 869, 950, 815, 768, 736, 746, 735, 816, 721, 753, 763, 819, 754, 874, 797, 755, 840, 798, 775, 869, 801, 758, 775, 749, 990, 816, 1140, 1231, 1343, 1000, 833, 880, 813, 804, 874, 749, 790, 1059, 915, 770, 764, 811, 714, 758, 892, 838, 982, 984, 896, 917, 951, 996, 798, 1024, 751, 749, 746, 732, 726, 800, 788, 732, 1018, 779, 1238, 1091, 1000, 754, 995, 1156, 997, 788, 832, 914, 785, 955, 932, 1033, 923, 968, 825, 795, 1184, 1006, 811, 947, 780, 1030, 908, 988, 1228, 1111], "WindowCenter": [442.0, 452.0, 451.0, 452.0, 446.0, 445.0, 445.0, 442.0, 443.0, 443.0, 442.0, 444.0, 439.0, 436.0, 428.0, 435.0, 440.0, 442.0, 445.0, 444.0, 446.0, 432.0, 441.0, 452.0, 454.0, 455.0, 450.0, 441.0, 427.0, 443.0, 426.0, 430.0, 428.0, 433.0, 445.0, 440.0, 442.0, 450.0, 439.0, 449.0, 451.0, 449.0, 448.0, 443.0, 444.0, 445.0, 440.0, 442.0, 440.0, 441.0, 445.0, 444.0, 447.0, 445.0, 437.0, 450.0, 445.0, 443.0, 452.0, 448.0, 438.0, 440.0, 441.0, 444.0, 445.0, 442.0, 441.0, 437.0, 440.0, 448.0, 442.0, 441.0, 433.0, 436.0, 447.0, 441.0, 434.0, 438.0, 441.0, 424.0, 442.0, 452.0, 442.0, 445.0, 444.0, 451.0, 448.0, 445.0, 448.0, 433.0, 444.0, 439.0, 434.0, 450.0, 434.0, 428.0, 418.0, 433.0, 438.0, 453.0, 460.0, 450.0, 438.0, 444.0, 453.0, 452.0, 442.0, 435.0, 438.0, 442.0, 443.0, 449.0, 452.0, 443.0, 436.0, 435.0, 449.0, 448.0, 446.0, 445.0, 445.0, 442.0, 441.0, 431.0, 431.0, 439.0, 431.0, 436.0, 433.0, 423.0, 429.0, 445.0, 452.0, 456.0, 452.0, 449.0, 443.0, 440.0, 442.0, 445.0, 448.0, 442.0, 442.0, 445.0, 443.0, 442.0, 442.0, 445.0, 444.0, 442.0, 445.0, 439.0, 438.0, 444.0, 446.0, 443.0, 446.0, 449.0, 445.0, 437.0, 438.0, 439.0, 439.0, 440.0, 444.0, 446.0, 445.0, 445.0, 442.0, 441.0, 440.0, 436.0, 434.0, 440.0, 438.0, 441.0, 450.0, 441.0, 439.0, 442.0, 438.0, 440.0, 426.0, 441.0, 441.0, 446.0, 449.0, 445.0, 452.0, 446.0, 446.0, 442.0, 442.0, 446.0, 442.0, 447.0, 455.0, 453.0, 451.0, 445.0, 440.0, 431.0, 443.0, 447.0, 445.0, 438.0, 436.0, 432.0, 442.0, 443.0, 447.0, 446.0, 445.0, 442.0, 439.0, 445.0, 443.0, 445.0, 443.0, 440.0, 443.0, 446.0, 446.0, 450.0, 445.0, 447.0, 443.0, 449.0, 448.0, 451.0, 446.0, 447.0, 447.0, 449.0, 444.0, 443.0, 439.0, 442.0, 439.0, 441.0, 445.0, 440.0, 437.0, 441.0, 438.0, 433.0, 431.0, 433.0, 436.0, 452.0, 448.0, 443.0, 445.0, 446.0, 449.0, 444.0, 445.0, 442.0, 447.0, 447.0, 451.0, 445.0, 449.0, 450.0, 448.0, 444.0, 441.0, 434.0, 443.0, 449.0, 446.0, 442.0, 432.0, 453.0, 448.0, 445.0, 448.0, 440.0, 438.0, 441.0, 449.0, 445.0, 450.0, 448.0, 445.0, 441.0, 445.0, 446.0, 445.0, 449.0, 440.0, 428.0, 432.0, 439.0, 444.0, 450.0, 443.0, 439.0, 455.0, 438.0, 450.0, 454.0, 448.0, 442.0, 448.0, 449.0, 447.0, 437.0, 423.0, 432.0, 408.0, 430.0, 435.0, 455.0, 457.0, 444.0, 441.0, 436.0, 450.0, 450.0, 445.0, 444.0, 441.0, 447.0, 446.0, 449.0, 444.0, 444.0], "WindowWidth": [928.0, 948.0, 944.0, 947.0, 936.0, 933.0, 934.0, 928.0, 930.0, 931.0, 928.0, 930.0, 922.0, 915.0, 901.0, 914.0, 924.0, 928.0, 933.0, 932.0, 934.0, 907.0, 924.0, 947.0, 950.0, 953.0, 943.0, 926.0, 898.0, 930.0, 898.0, 904.0, 901.0, 909.0, 933.0, 923.0, 927.0, 943.0, 920.0, 940.0, 942.0, 940.0, 938.0, 929.0, 931.0, 932.0, 924.0, 928.0, 923.0, 925.0, 933.0, 931.0, 937.0, 932.0, 916.0, 940.0, 932.0, 928.0, 946.0, 937.0, 920.0, 925.0, 926.0, 931.0, 934.0, 927.0, 926.0, 919.0, 924.0, 940.0, 926.0, 926.0, 911.0, 917.0, 936.0, 925.0, 913.0, 917.0, 922.0, 892.0, 927.0, 945.0, 928.0, 934.0, 932.0, 945.0, 938.0, 932.0, 940.0, 910.0, 932.0, 922.0, 912.0, 941.0, 912.0, 900.0, 880.0, 910.0, 919.0, 947.0, 961.0, 941.0, 920.0, 932.0, 947.0, 947.0, 926.0, 914.0, 919.0, 930.0, 930.0, 940.0, 947.0, 930.0, 916.0, 914.0, 943.0, 938.0, 935.0, 933.0, 932.0, 926.0, 925.0, 907.0, 907.0, 922.0, 908.0, 916.0, 909.0, 892.0, 902.0, 934.0, 948.0, 954.0, 947.0, 940.0, 929.0, 923.0, 928.0, 935.0, 938.0, 927.0, 926.0, 932.0, 929.0, 929.0, 927.0, 933.0, 932.0, 927.0, 932.0, 922.0, 919.0, 932.0, 936.0, 929.0, 934.0, 938.0, 933.0, 917.0, 920.0, 921.0, 922.0, 924.0, 931.0, 936.0, 933.0, 934.0, 928.0, 927.0, 924.0, 917.0, 912.0, 922.0, 919.0, 925.0, 942.0, 925.0, 923.0, 928.0, 920.0, 925.0, 896.0, 927.0, 926.0, 936.0, 941.0, 934.0, 946.0, 935.0, 935.0, 928.0, 927.0, 933.0, 925.0, 937.0, 951.0, 948.0, 943.0, 932.0, 925.0, 906.0, 931.0, 937.0, 933.0, 921.0, 915.0, 908.0, 929.0, 930.0, 937.0, 935.0, 933.0, 927.0, 921.0, 932.0, 930.0, 934.0, 930.0,