{"AcquisitionMatrixPE": 64, "AcquisitionNumber": 1, "AcquisitionTime": "11:17:42.727500", "BandwidthPerPixelPhaseEncode": 28.935, "BaseResolution": 64, "BodyPartExamined": "BRAIN", "CoilString": "HC2_4_6_7;NC2;SC", "ConsistencyInfo": "N4_VE11E_LATEST_20181129", "ConversionSoftware": "dcm2niix", "ConversionSoftwareVersion": "v1.0.20190902", "DerivedVendorReportedEchoSpacing": 0.000540003, "DeviceSerialNumber": "166182", "DwellTime": 3.4e-06, "EchoTime": 0.032, "EchoTrainLength": 64, "EffectiveEchoSpacing": 0.000540003, "FlipAngle": 40, "ImageOrientationPatientDICOM": [0.999607, -0.00159588, -0.028, -0.00174463, 0.992908, -0.118875], "ImageType": ["ORIGINAL", "PRIMARY", "M", "ND", "NORM", "MOSAIC"], "ImagingFrequency": 123.257, "InPlanePhaseEncodingDirectionDICOM": "COL", "InstitutionAddress": "PEARSE_STREET_._City_District_IE_D2", "InstitutionName": "TCIN", "InstitutionalDepartmentName": "MRI", "MRAcquisitionType": "2D", "MagneticFieldStrength": 3, "Manufacturer": "Siemens", "ManufacturersModelName": "Prisma", "Modality": "MR", "MultibandAccelerationFactor": 4, "PartialFourier": 1, "PatientPosition": "HFS", "PercentPhaseFOV": 100, "PhaseEncodingDirection": "j-", "PhaseEncodingSteps": 64, "PhaseResolution": 1, "PixelBandwidth": 2300, "ProcedureStepDescription": "Rhodri_Head_BOLD", "ProtocolName": "cmrr_mbep2d_bold_Pictures_AP", "PulseSequenceDetails": "%SiemensSeq%_ep2d_bold", "ReceiveCoilActiveElements": "HC2,4,6,7;NC2;SC", "ReceiveCoilName": "SpecialPurpose_4", "ReconMatrixPE": 64, "RefLinesPE": 12, "RepetitionTime": 0.61, "SAR": 0.278428, "ScanOptions": "FS", "ScanningSequence": "EP", "SequenceName": "_epfid2d1_64", "SequenceVariant": "SK", "SeriesDescription": "cmrr_mbep2d_bold_Pictures_AP", "SeriesNumber": 8, "ShimSetting": [-3583, -7444, 3877, 884, 24, 479, -145, 193], "SliceThickness": 3, "SliceTiming": [0.2625, 0, 0.3275, 0.065, 0.3925, 0.13, 0.4575, 0.195, 0.525, 0.2625, 0, 0.3275, 0.065, 0.3925, 0.13, 0.4575, 0.195, 0.525, 0.2625, 0, 0.3275, 0.065, 0.3925, 0.13, 0.4575, 0.195, 0.525, 0.2625, 0, 0.3275, 0.065, 0.3925, 0.13, 0.4575, 0.195, 0.525], "SoftwareVersions": "syngo_MR_E11", "SpacingBetweenSlices": 3.3, "StationName": "AWP166182", "TaskName": "pictures", "TotalReadoutTime": 0.0340202, "TxRefAmp": 237.777, "dcmmeta_affine": [[-2.9988200664520264, -0.005233900621533394, -0.09237069636583328, 97.90275573730469], [0.004787644371390343, 2.9787230491638184, -0.3922956585884094, -102.38729858398438], [-0.08399998396635056, 0.35662615299224854, 3.275297164916992, -102.05908203125], [0.0, 0.0, 0.0, 1.0]], "dcmmeta_reorient_transform": [[0.0, -1.0, 0.0, 63.0], [1.0, 0.0, 0.0, 0.0], [0.0, 0.0, 1.0, 0.0], [0.0, 0.0, 0.0, 1.0]], "dcmmeta_shape": [64, 64, 36, 510], "dcmmeta_slice_dim": 2, "dcmmeta_version": 0.6, "global": {"const": {"AcquisitionMatrix": [64, 0, 0, 64], "AngioFlag": "N", "BitsAllocated": 16, "BitsStored": 12, "BodyPartExamined": "BRAIN", "Columns": 384, "EchoNumbers": 1, "EchoTime": 32.0, "EchoTrainLength": 64, "FlipAngle": 40.0, "HighBit": 11, "ImageOrientationPatient": [0.9996066493838, -0.0015958813954, -0.0279999941118, -0.0017446334913, 0.99290764881354, -0.1188753850953], "ImagePositionPatient": [-576.54678519979, -561.10189269199, -9.0914548555006], "ImageType": ["ORIGINAL", "PRIMARY", "M", "ND", "NORM", "MOSAIC"], "ImagedNucleus": "1H", "ImagingFrequency": 123.257454, "InPlanePhaseEncodingDirection": "COL", "MRAcquisitionType": "2D", "MagneticFieldStrength": 3.0, "Manufacturer": "SIEMENS", "ManufacturerModelName": "Prisma", "Modality": "MR", "NumberOfAverages": 1.0, "NumberOfPhaseEncodingSteps": 64, "PercentPhaseFieldOfView": 100.0, "PercentSampling": 100.0, "PerformedProcedureStepStartTime": "110418.737000", "PhotometricInterpretation": "MONOCHROME2", "PixelBandwidth": 2300.0, "PixelRepresentation": 0, "PixelSpacing": [3.0, 3.0], "ProtocolName": "cmrr_mbep2d_bold_Pictures_AP", "RepetitionTime": 610.0, "Rows": 384, "SAR": 0.27842763595234, "SamplesPerPixel": 1, "ScanOptions": "FS", "ScanningSequence": "EP", "SequenceName": "*epfid2d1_64", "SequenceVariant": "SK", "SeriesDescription": "cmrr_mbep2d_bold_Pictures_AP", "SeriesNumber": 8, "SeriesTime": "111812.055000", "SliceLocation": -91.863965139672, "SliceThickness": 3.0, "SmallestImagePixelValue": 0, "SoftwareVersions": "syngo MR E11", "SpacingBetweenSlices": 3.299999960211, "SpecificCharacterSet": "ISO_IR 100", "StudyID": "1", "StudyTime": "110418.653000", "TransmitCoilName": "Body", "VariableFlipAngleFlag": "N", "WindowCenterWidthExplanation": "Algo1"}, "slices": {}}, "time": {"samples": {"AcquisitionNumber": [1, 2, 3, 4, 5, 6, 7, 8, 9, 10, 11, 12, 13, 14, 15, 16, 17, 18, 19, 20, 21, 22, 23, 24, 25, 26, 27, 28, 29, 30, 31, 32, 33, 34, 35, 36, 37, 38, 39, 40, 41, 42, 43, 44, 45, 46, 47, 48, 49, 50, 51, 52, 53, 54, 55, 56, 57, 58, 59, 60, 61, 62, 63, 64, 65, 66, 67, 68, 69, 70, 71, 72, 73, 74, 75, 76, 77, 78, 79, 80, 81, 82, 83, 84, 85, 86, 87, 88, 89, 90, 91, 92, 93, 94, 95, 96, 97, 98, 99, 100, 101, 102, 103, 104, 105, 106, 107, 108, 109, 110, 111, 112, 113, 114, 115, 116, 117, 118, 119, 120, 121, 122, 123, 124, 125, 126, 127, 128, 129, 130, 131, 132, 133, 134, 135, 136, 137, 138, 139, 140, 141, 142, 143, 144, 145, 146, 147, 148, 149, 150, 151, 152, 153, 154, 155, 156, 157, 158, 159, 160, 161, 162, 163, 164, 165, 166, 167, 168, 169, 170, 171, 172, 173, 174, 175, 176, 177, 178, 179, 180, 181, 182, 183, 184, 185, 186, 187, 188, 189, 190, 191, 192, 193, 194, 195, 196, 197, 198, 199, 200, 201, 202, 203, 204, 205, 206, 207, 208, 209, 210, 211, 212, 213, 214, 215, 216, 217, 218, 219, 220, 221, 222, 223, 224, 225, 226, 227, 228, 229, 230, 231, 232, 233, 234, 235, 236, 237, 238, 239, 240, 241, 242, 243, 244, 245, 246, 247, 248, 249, 250, 251, 252, 253, 254, 255, 256, 257, 258, 259, 260, 261, 262, 263, 264, 265, 266, 267, 268, 269, 270, 271, 272, 273, 274, 275, 276, 277, 278, 279, 280, 281, 282, 283, 284, 285, 286, 287, 288, 289, 290, 291, 292, 293, 294, 295, 296, 297, 298, 299, 300, 301, 302, 303, 304, 305, 306, 307, 308, 309, 310, 311, 312, 313, 314, 315, 316, 317, 318, 319, 320, 321, 322, 323, 324, 325, 326, 327, 328, 329, 330, 331, 332, 333, 334, 335, 336, 337, 338, 339, 340, 341, 342, 343, 344, 345, 346, 347, 348, 349, 350, 351, 352, 353, 354, 355, 356, 357, 358, 359, 360, 361, 362, 363, 364, 365, 366, 367, 368, 369, 370, 371, 372, 373, 374, 375, 376, 377, 378, 379, 380, 381, 382, 383, 384, 385, 386, 387, 388, 389, 390, 391, 392, 393, 394, 395, 396, 397, 398, 399, 400, 401, 402, 403, 404, 405, 406, 407, 408, 409, 410, 411, 412, 413, 414, 415, 416, 417, 418, 419, 420, 421, 422, 423, 424, 425, 426, 427, 428, 429, 430, 431, 432, 433, 434, 435, 436, 437, 438, 439, 440, 441, 442, 443, 444, 445, 446, 447, 448, 449, 450, 451, 452, 453, 454, 455, 456, 457, 458, 459, 460, 461, 462, 463, 464, 465, 466, 467, 468, 469, 470, 471, 472, 473, 474, 475, 476, 477, 478, 479, 480, 481, 482, 483, 484, 485, 486, 487, 488, 489, 490, 491, 492, 493, 494, 495, 496, 497, 498, 499, 500, 501, 502, 503, 504, 505, 506, 507, 508, 509, 510], "AcquisitionTime": ["111742.727500", "111743.337500", "111743.947500", "111744.557500", "111745.167500", "111745.777500", "111746.387500", "111746.997500", "111747.607500", "111748.217500", "111748.827500", "111749.437500", "111750.047500", "111750.657500", "111751.267500", "111751.877500", "111752.487500", "111753.097500", "111753.707500", "111754.317500", "111754.927500", "111755.537500", "111756.147500", "111756.757500", "111757.367500", "111757.977500", "111758.587500", "111759.197500", "111759.807500", "111800.417500", "111801.027500", "111801.637500", "111802.247500", "111802.857500", "111803.467500", "111804.077500", "111804.687500", "111805.297500", "111805.907500", "111806.517500", "111807.127500", "111807.737500", "111808.347500", "111808.957500", "111809.567500", "111810.177500", "111810.787500", "111811.397500", "111812.007500", "111812.617500", "111813.227500", "111813.837500", "111814.447500", "111815.057500", "111815.667500", "111816.277500", "111816.887500", "111817.497500", "111818.107500", "111818.717500", "111819.327500", "111819.937500", "111820.547500", "111821.157500", "111821.767500", "111822.377500", "111822.987500", "111823.597500", "111824.207500", "111824.817500", "111825.427500", "111826.037500", "111826.647500", "111827.257500", "111827.867500", "111828.477500", "111829.087500", "111829.697500", "111830.307500", "111830.917500", "111831.527500", "111832.137500", "111832.747500", "111833.357500", "111833.967500", "111834.577500", "111835.187500", "111835.797500", "111836.407500", "111837.017500", "111837.627500", "111838.237500", "111838.847500", "111839.457500", "111840.067500", "111840.677500", "111841.287500", "111841.897500", "111842.507500", "111843.117500", "111843.727500", "111844.337500", "111844.947500", "111845.557500", "111846.167500", "111846.777500", "111847.387500", "111847.997500", "111848.607500", "111849.217500", "111849.827500", "111850.437500", "111851.047500", "111851.657500", "111852.267500", "111852.877500", "111853.487500", "111854.097500", "111854.707500", "111855.317500", "111855.927500", "111856.537500", "111857.147500", "111857.757500", "111858.367500", "111858.977500", "111859.587500", "111900.197500", "111900.807500", "111901.417500", "111902.027500", "111902.637500", "111903.247500", "111903.857500", "111904.467500", "111905.077500", "111905.687500", "111906.297500", "111906.907500", "111907.517500", "111908.127500", "111908.737500", "111909.347500", "111909.957500", "111910.567500", "111911.177500", "111911.787500", "111912.397500", "111913.007500", "111913.617500", "111914.227500", "111914.837500", "111915.447500", "111916.057500", "111916.667500", "111917.277500", "111917.887500", "111918.497500", "111919.107500", "111919.717500", "111920.327500", "111920.937500", "111921.547500", "111922.157500", "111922.767500", "111923.377500", "111923.987500", "111924.597500", "111925.207500", "111925.817500", "111926.427500", "111927.037500", "111927.647500", "111928.257500", "111928.867500", "111929.477500", "111930.087500", "111930.697500", "111931.307500", "111931.917500", "111932.527500", "111933.137500", "111933.747500", "111934.357500", "111934.967500", "111935.577500", "111936.187500", "111936.797500", "111937.407500", "111938.017500", "111938.627500", "111939.237500", "111939.847500", "111940.457500", "111941.067500", "111941.677500", "111942.287500", "111942.897500", "111943.507500", "111944.117500", "111944.727500", "111945.337500", "111945.947500", "111946.557500", "111947.167500", "111947.777500", "111948.387500", "111948.997500", "111949.607500", "111950.217500", "111950.827500", "111951.437500", "111952.047500", "111952.657500", "111953.267500", "111953.877500", "111954.487500", "111955.097500", "111955.707500", "111956.317500", "111956.927500", "111957.537500", "111958.147500", "111958.757500", "111959.367500", "111959.977500", "112000.587500", "112001.197500", "112001.807500", "112002.417500", "112003.027500", "112003.637500", "112004.247500", "112004.857500", "112005.467500", "112006.077500", "112006.687500", "112007.297500", "112007.907500", "112008.517500", "112009.127500", "112009.737500", "112010.347500", "112010.957500", "112011.567500", "112012.177500", "112012.787500", "112013.397500", "112014.007500", "112014.617500", "112015.227500", "112015.837500", "112016.447500", "112017.057500", "112017.667500", "112018.277500", "112018.887500", "112019.497500", "112020.107500", "112020.717500", "112021.327500", "112021.937500", "112022.547500", "112023.157500", "112023.767500", "112024.377500", "112024.987500", "112025.597500", "112026.207500", "112026.817500", "112027.427500", "112028.037500", "112028.647500", "112029.257500", "112029.867500", "112030.477500", "112031.087500", "112031.697500", "112032.307500", "112032.917500", "112033.527500", "112034.137500", "112034.747500", "112035.357500", "112035.967500", "112036.577500", "112037.187500", "112037.797500", "112038.407500", "112039.017500", "112039.627500", "112040.237500", "112040.847500", "112041.457500", "112042.067500", "112042.677500", "112043.287500", "112043.897500", "112044.507500", "112045.117500", "112045.727500", "112046.337500", "112046.947500", "112047.557500", "112048.167500", "112048.777500", "112049.387500", "112049.997500", "112050.607500", "112051.217500", "112051.827500", "112052.437500", "112053.047500", "112053.657500", "112054.267500", "112054.877500", "112055.487500", "112056.097500", "112056.707500", "112057.317500", "112057.927500", "112058.537500", "112059.147500", "112059.757500", "112100.367500", "112100.977500", "112101.587500", "112102.197500", "112102.807500", "112103.417500", "112104.027500", "112104.637500", "112105.247500", "112105.857500", "112106.467500", "112107.077500", "112107.687500", "112108.297500", "112108.907500", "112109.517500", "112110.127500", "112110.737500", "112111.347500", "112111.957500", "112112.567500", "112113.177500", "112113.787500", "112114.397500", "112115.007500", "112115.617500", "112116.227500", "112116.837500", "112117.447500", "112118.057500", "112118.667500", "112119.277500", "112119.887500", "112120.497500", "112121.107500", "112121.717500", "112122.327500", "112122.937500", "112123.547500", "112124.157500", "112124.767500", "112125.377500", "112125.987500", "112126.597500", "112127.207500", "112127.817500", "112128.427500", "112129.037500", "112129.647500", "112130.257500", "112130.867500", "112131.477500", "112132.087500", "112132.697500", "112133.307500", "112133.917500", "112134.527500", "112135.137500", "112135.747500", "112136.357500", "112136.967500", "112137.577500", "112138.187500", "112138.797500", "112139.407500", "112140.017500", "112140.627500", "112141.237500", "112141.847500", "112142.457500", "112143.067500", "112143.677500", "112144.287500", "112144.897500", "112145.507500", "112146.117500", "112146.727500", "112147.337500", "112147.947500", "112148.557500", "112149.167500", "112149.777500", "112150.387500", "112150.997500", "112151.607500", "112152.217500", "112152.827500", "112153.437500", "112154.047500", "112154.657500", "112155.267500", "112155.877500", "112156.487500", "112157.097500", "112157.707500", "112158.317500", "112158.927500", "112159.537500", "112200.147500", "112200.757500", "112201.367500", "112201.977500", "112202.587500", "112203.197500", "112203.807500", "112204.417500", "112205.027500", "112205.637500", "112206.247500", "112206.857500", "112207.467500", "112208.077500", "112208.687500", "112209.297500", "112209.907500", "112210.517500", "112211.127500", "112211.737500", "112212.347500", "112212.957500", "112213.567500", "112214.177500", "112214.787500", "112215.397500", "112216.007500", "112216.617500", "112217.227500", "112217.837500", "112218.447500", "112219.057500", "112219.667500", "112220.277500", "112220.887500", "112221.497500", "112222.107500", "112222.717500", "112223.327500", "112223.937500", "112224.547500", "112225.157500", "112225.767500", "112226.377500", "112226.987500", "112227.597500", "112228.207500", "112228.817500", "112229.427500", "112230.037500", "112230.647500", "112231.257500", "112231.867500", "112232.477500", "112233.087500", "112233.697500", "112234.307500", "112234.917500", "112235.527500", "112236.137500", "112236.747500", "112237.357500", "112237.967500", "112238.577500", "112239.187500", "112239.797500", "112240.407500", "112241.017500", "112241.627500", "112242.237500", "112242.847500", "112243.457500", "112244.067500", "112244.677500", "112245.287500", "112245.897500", "112246.507500", "112247.117500", "112247.727500", "112248.337500", "112248.947500", "112249.557500", "112250.167500", "112250.777500", "112251.387500", "112251.997500", "112252.607500", "112253.217500"], "ContentTime": ["111812.058000", "111812.061000", "111812.064000", "111812.066000", "111812.069000", "111812.080000", "111812.082000", "111812.085000", "111812.087000", "111812.090000", "111812.092000", "111812.095000", "111812.098000", "111812.100000", "111812.103000", "111812.105000", "111812.108000", "111812.110000", "111812.112000", "111812.115000", "111812.117000", "111812.120000", "111812.122000", "111812.125000", "111812.127000", "111812.129000", "111812.132000", "111812.134000", "111812.137000", "111812.139000", "111812.142000", "111812.144000", "111812.147000", "111812.149000", "111812.151000", "111812.154000", "111812.156000", "111812.159000", "111812.161000", "111812.164000", "111812.167000", "111812.169000", "111812.171000", "111812.174000", "111812.176000", "111812.179000", "111812.181000", "111832.053000", "111832.056000", "111832.058000", "111832.061000", "111832.063000", "111832.065000", "111832.068000", "111832.070000", "111832.073000", "111832.075000", "111832.078000", "111832.080000", "111832.082000", "111832.085000", "111832.088000", "111832.090000", "111832.092000", "111832.095000", "111832.097000", "111832.100000", "111832.102000", "111832.104000", "111832.107000", "111832.109000", "111832.112000", "111832.114000", "111832.117000", "111832.119000", "111832.121000", "111832.124000", "111832.126000", "111832.129000", "111832.131000", "111852.053000", "111852.056000", "111852.058000", "111852.061000", "111852.063000", "111852.069000", "111852.072000", "111852.074000", "111852.077000", "111852.079000", "111852.081000", "111852.084000", "111852.086000", "111852.089000", "111852.091000", "111852.094000", "111852.096000", "111852.099000", "111852.101000", "111852.103000", "111852.106000", "111852.108000", "111852.111000", "111852.113000", "111852.115000", "111852.118000", "111852.120000", "111852.123000", "111852.125000", "111852.127000", "111852.130000", "111852.132000", "111852.135000", "111912.053000", "111912.056000", "111912.058000", "111912.061000", "111912.063000", "111912.066000", "111912.068000", "111912.070000", "111912.073000", "111912.075000", "111912.078000", "111912.080000", "111912.083000", "111912.085000", "111912.087000", "111912.090000", "111912.092000", "111912.095000", "111912.097000", "111912.099000", "111912.102000", "111912.104000", "111912.107000", "111912.109000", "111912.122000", "111912.124000", "111912.127000", "111912.129000", "111912.132000", "111912.134000", "111912.137000", "111912.139000", "111912.141000", "111932.053000", "111932.056000", "111932.059000", "111932.061000", "111932.064000", "111932.066000", "111932.069000", "111932.071000", "111932.074000", "111932.076000", "111932.078000", "111932.081000", "111932.083000", "111932.086000", "111932.088000", "111932.091000", "111932.093000", "111932.096000", "111932.098000", "111932.101000", "111932.103000", "111932.105000", "111932.108000", "111932.110000", "111932.113000", "111932.115000", "111932.117000", "111932.120000", "111932.122000", "111932.125000", "111932.127000", "111932.130000", "111952.055000", "111952.059000", "111952.061000", "111952.063000", "111952.066000", "111952.068000", "111952.071000", "111952.076000", "111952.079000", "111952.082000", "111952.085000", "111952.089000", "111952.092000", "111952.094000", "111952.097000", "111952.101000", "111952.108000", "111952.110000", "111952.114000", "111952.116000", "111952.119000", "111952.124000", "111952.126000", "111952.129000", "111952.133000", "111952.139000", "111952.144000", "111952.150000", "111952.155000", "111952.160000", "111952.164000", "111952.166000", "111952.169000", "112012.053000", "112012.056000", "112012.058000", "112012.061000", "112012.063000", "112012.066000", "112012.068000", "112012.071000", "112012.073000", "112012.075000", "112012.078000", "112012.080000", "112012.083000", "112012.085000", "112012.088000", "112012.090000", "112012.092000", "112012.095000", "112012.097000", "112012.100000", "112012.102000", "112012.105000", "112012.107000", "112012.109000", "112012.112000", "112012.114000", "112012.117000", "112012.119000", "112012.122000", "112012.124000", "112012.126000", "112012.129000", "112012.131000", "112032.053000", "112032.056000", "112032.058000", "112032.061000", "112032.063000", "112032.066000", "112032.069000", "112032.071000", "112032.074000", "112032.076000", "112032.079000", "112032.081000", "112032.084000", "112032.086000", "112032.089000", "112032.091000", "112032.094000", "112032.096000", "112032.099000", "112032.101000", "112032.104000", "112032.107000", "112032.109000", "112032.111000", "112032.114000", "112032.116000", "112032.119000", "112032.121000", "112032.124000", "112032.126000", "112032.129000", "112032.131000", "112032.134000", "112052.053000", "112052.056000", "112052.058000", "112052.061000", "112052.063000", "112052.066000", "112052.068000", "112052.070000", "112052.073000", "112052.075000", "112052.078000", "112052.080000", "112052.083000", "112052.085000", "112052.087000", "112052.090000", "112052.092000", "112052.095000", "112052.097000", "112052.099000", "112052.102000", "112052.104000", "112052.107000", "112052.109000", "112052.112000", "112052.114000", "112052.117000", "112052.119000", "112052.121000", "112052.124000", "112052.126000", "112052.129000", "112112.053000", "112112.056000", "112112.058000", "112112.061000", "112112.063000", "112112.066000", "112112.068000", "112112.071000", "112112.074000", "112112.076000", "112112.078000", "112112.081000", "112112.083000", "112112.086000", "112112.088000", "112112.091000", "112112.093000", "112112.096000", "112112.098000", "112112.100000", "112112.103000", "112112.105000", "112112.108000", "112112.110000", "112112.113000", "112112.115000", "112112.118000", "112112.120000", "112112.122000", "112112.125000", "112112.127000", "112112.130000", "112112.132000", "112132.053000", "112132.056000", "112132.059000", "112132.061000", "112132.064000", "112132.066000", "112132.069000", "112132.071000", "112132.073000", "112132.076000", "112132.078000", "112132.081000", "112132.083000", "112132.086000", "112132.088000", "112132.091000", "112132.093000", "112132.095000", "112132.098000", "112132.100000", "112132.103000", "112132.105000", "112132.108000", "112132.110000", "112132.113000", "112132.115000", "112132.118000", "112132.120000", "112132.122000", "112132.125000", "112132.127000", "112132.130000", "112132.132000", "112152.053000", "112152.056000", "112152.058000", "112152.061000", "112152.063000", "112152.066000", "112152.068000", "112152.071000", "112152.073000", "112152.075000", "112152.078000", "112152.080000", "112152.083000", "112152.085000", "112152.088000", "112152.090000", "112152.093000", "112152.095000", "112152.098000", "112152.100000", "112152.102000", "112152.105000", "112152.107000", "112152.110000", "112152.112000", "112152.114000", "112152.117000", "112152.119000", "112152.122000", "112152.124000", "112152.127000", "112152.129000", "112152.132000", "112212.053000", "112212.056000", "112212.058000", "112212.064000", "112212.066000", "112212.069000", "112212.071000", "112212.073000", "112212.076000", "112212.078000", "112212.081000", "112212.084000", "112212.086000", "112212.089000", "112212.091000", "112212.094000", "112212.096000", "112212.098000", "112212.101000", "112212.103000", "112212.106000", "112212.108000", "112212.111000", "112212.113000", "112212.116000", "112212.118000", "112212.120000", "112212.123000", "112212.125000", "112212.128000", "112212.130000", "112212.132000", "112212.135000", "112232.053000", "112232.056000", "112232.058000", "112232.061000", "112232.063000", "112232.066000", "112232.068000", "112232.070000", "112232.073000", "112232.075000", "112232.078000", "112232.080000", "112232.083000", "112232.085000", "112232.088000", "112232.090000", "112232.093000", "112232.096000", "112232.098000", "112232.101000", "112232.103000", "112232.106000", "112232.108000", "112232.110000", "112232.113000", "112232.115000", "112232.118000", "112232.120000", "112232.123000", "112232.125000", "112232.127000", "112232.130000", "112252.054000", "112252.057000", "112252.059000", "112252.062000", "112252.064000", "112252.066000", "112252.069000", "112252.071000", "112252.074000", "112252.076000", "112252.078000", "112252.081000", "112252.083000", "112252.086000", "112252.088000", "112252.091000", "112252.093000", "112252.096000", "112252.098000", "112252.100000", "112252.103000", "112252.105000", "112252.108000", "112252.110000", "112252.113000", "112252.115000", "112252.118000", "112252.120000", "112252.123000", "112252.125000", "112252.128000", "112252.130000", "112252.132000", "112254.011000", "112254.014000", "112254.017000", "112254.019000"], "InstanceCreationTime": ["111812.058000", "111812.061000", "111812.064000", "111812.066000", "111812.069000", "111812.080000", "111812.082000", "111812.085000", "111812.087000", "111812.090000", "111812.092000", "111812.095000", "111812.098000", "111812.100000", "111812.103000", "111812.105000", "111812.108000", "111812.110000", "111812.112000", "111812.115000", "111812.117000", "111812.120000", "111812.122000", "111812.125000", "111812.127000", "111812.129000", "111812.132000", "111812.134000", "111812.137000", "111812.139000", "111812.142000", "111812.144000", "111812.147000", "111812.149000", "111812.151000", "111812.154000", "111812.156000", "111812.159000", "111812.161000", "111812.164000", "111812.167000", "111812.169000", "111812.171000", "111812.174000", "111812.176000", "111812.179000", "111812.181000", "111832.053000", "111832.056000", "111832.058000", "111832.061000", "111832.063000", "111832.065000", "111832.068000", "111832.070000", "111832.073000", "111832.075000", "111832.078000", "111832.080000", "111832.082000", "111832.085000", "111832.088000", "111832.090000", "111832.092000", "111832.095000", "111832.097000", "111832.100000", "111832.102000", "111832.104000", "111832.107000", "111832.109000", "111832.112000", "111832.114000", "111832.117000", "111832.119000", "111832.121000", "111832.124000", "111832.126000", "111832.129000", "111832.131000", "111852.053000", "111852.056000", "111852.058000", "111852.061000", "111852.063000", "111852.069000", "111852.072000", "111852.074000", "111852.077000", "111852.079000", "111852.081000", "111852.084000", "111852.086000", "111852.089000", "111852.091000", "111852.094000", "111852.096000", "111852.099000", "111852.101000", "111852.103000", "111852.106000", "111852.108000", "111852.111000", "111852.113000", "111852.115000", "111852.118000", "111852.120000", "111852.123000", "111852.125000", "111852.127000", "111852.130000", "111852.132000", "111852.135000", "111912.053000", "111912.056000", "111912.058000", "111912.061000", "111912.063000", "111912.066000", "111912.068000", "111912.070000", "111912.073000", "111912.075000", "111912.078000", "111912.080000", "111912.083000", "111912.085000", "111912.087000", "111912.090000", "111912.092000", "111912.095000", "111912.097000", "111912.099000", "111912.102000", "111912.104000", "111912.107000", "111912.109000", "111912.122000", "111912.124000", "111912.127000", "111912.129000", "111912.132000", "111912.134000", "111912.137000", "111912.139000", "111912.141000", "111932.053000", "111932.056000", "111932.059000", "111932.061000", "111932.064000", "111932.066000", "111932.069000", "111932.071000", "111932.074000", "111932.076000", "111932.078000", "111932.081000", "111932.083000", "111932.086000", "111932.088000", "111932.091000", "111932.093000", "111932.096000", "111932.098000", "111932.101000", "111932.103000", "111932.105000", "111932.108000", "111932.110000", "111932.113000", "111932.115000", "111932.117000", "111932.120000", "111932.122000", "111932.125000", "111932.127000", "111932.130000", "111952.055000", "111952.059000", "111952.061000", "111952.063000", "111952.066000", "111952.068000", "111952.071000", "111952.076000", "111952.079000", "111952.082000", "111952.085000", "111952.089000", "111952.092000", "111952.094000", "111952.097000", "111952.101000", "111952.108000", "111952.110000", "111952.114000", "111952.116000", "111952.119000", "111952.124000", "111952.126000", "111952.129000", "111952.133000", "111952.139000", "111952.144000", "111952.150000", "111952.155000", "111952.160000", "111952.164000", "111952.166000", "111952.169000", "112012.053000", "112012.056000", "112012.058000", "112012.061000", "112012.063000", "112012.066000", "112012.068000", "112012.071000", "112012.073000", "112012.075000", "112012.078000", "112012.080000", "112012.083000", "112012.085000", "112012.088000", "112012.090000", "112012.092000", "112012.095000", "112012.097000", "112012.100000", "112012.102000", "112012.105000", "112012.107000", "112012.109000", "112012.112000", "112012.114000", "112012.117000", "112012.119000", "112012.122000", "112012.124000", "112012.126000", "112012.129000", "112012.131000", "112032.053000", "112032.056000", "112032.058000", "112032.061000", "112032.063000", "112032.066000", "112032.069000", "112032.071000", "112032.074000", "112032.076000", "112032.079000", "112032.081000", "112032.084000", "112032.086000", "112032.089000", "112032.091000", "112032.094000", "112032.096000", "112032.099000", "112032.101000", "112032.104000", "112032.107000", "112032.109000", "112032.111000", "112032.114000", "112032.116000", "112032.119000", "112032.121000", "112032.124000", "112032.126000", "112032.129000", "112032.131000", "112032.134000", "112052.053000", "112052.056000", "112052.058000", "112052.061000", "112052.063000", "112052.066000", "112052.068000", "112052.070000", "112052.073000", "112052.075000", "112052.078000", "112052.080000", "112052.083000", "112052.085000", "112052.087000", "112052.090000", "112052.092000", "112052.095000", "112052.097000", "112052.099000", "112052.102000", "112052.104000", "112052.107000", "112052.109000", "112052.112000", "112052.114000", "112052.117000", "112052.119000", "112052.121000", "112052.124000", "112052.126000", "112052.129000", "112112.053000", "112112.056000", "112112.058000", "112112.061000", "112112.063000", "112112.066000", "112112.068000", "112112.071000", "112112.074000", "112112.076000", "112112.078000", "112112.081000", "112112.083000", "112112.086000", "112112.088000", "112112.091000", "112112.093000", "112112.096000", "112112.098000", "112112