{"AcquisitionMatrixPE": 64, "AcquisitionNumber": 1, "AcquisitionTime": "10:27:16.680000", "BandwidthPerPixelPhaseEncode": 28.935, "BaseResolution": 64, "BodyPartExamined": "BRAIN", "CoilCombinationMethod": "Sum of Squares", "ConsistencyInfo": "N4_VE11E_LATEST_20181129", "ConversionSoftware": "dcm2niix", "ConversionSoftwareVersion": "v1.0.20230411", "DerivedVendorReportedEchoSpacing": 0.000540003, "DeviceSerialNumber": "166182", "DwellTime": 3.4e-06, "EchoTime": 0.032, "EchoTrainLength": 64, "EffectiveEchoSpacing": 0.000540003, "FlipAngle": 40, "HeudiconvVersion": "0.13.1", "ImageOrientationPatientDICOM": [0.999144, -0.0413431, 0.00170012, 0.0413525, 0.999127, -0.00587717], "ImageOrientationText": "Tra>Cor(-0.3)>Sag(0.1)", "ImageType": ["ORIGINAL", "PRIMARY", "M", "ND", "NORM", "MOSAIC"], "ImagingFrequency": 123.256444, "InPlanePhaseEncodingDirectionDICOM": "COL", "InstitutionAddress": "PEARSE STREET .,City,District,IE,D2", "InstitutionName": "TCIN", "InstitutionalDepartmentName": "MRI", "MRAcquisitionType": "2D", "MagneticFieldStrength": 3, "Manufacturer": "Siemens", "ManufacturersModelName": "Prisma", "Modality": "MR", "MultibandAccelerationFactor": 4, "NonlinearGradientCorrection": false, "PartialFourier": 1, "PatientPosition": "HFS", "PercentPhaseFOV": 100, "PercentSampling": 100, "PhaseEncodingDirection": "j-", "PhaseEncodingSteps": 64, "PhaseResolution": 1, "PixelBandwidth": 2300, "ProcedureStepDescription": "Rhodri^Head BOLD", "ProtocolName": "cmrr_mbep2d_Pictures_AP_RDS", "PulseSequenceDetails": "%SiemensSeq%\\ep2d_bold", "ReceiveCoilActiveElements": "HC2,4,6,7;SC", "ReceiveCoilName": "SpecialPurpose_4", "ReconMatrixPE": 64, "RefLinesPE": 12, "RepetitionTime": 0.61, "SAR": 0.297951, "ScanOptions": "FS", "ScanningSequence": "EP", "SequenceName": "*epfid2d1_64", "SequenceVariant": "SK", "SeriesDescription": "cmrr_mbep2d_Pictures_AP_RDS", "SeriesNumber": 10, "ShimSetting": [-3681, -7332, 3838, 968, -27, 433, -157, -237], "SliceThickness": 3, "SliceTiming": [0.2625, 0, 0.3275, 0.065, 0.395, 0.1325, 0.46, 0.1975, 0.525, 0.2625, 0, 0.3275, 0.065, 0.395, 0.1325, 0.46, 0.1975, 0.525, 0.2625, 0, 0.3275, 0.065, 0.395, 0.1325, 0.46, 0.1975, 0.525, 0.2625, 0, 0.3275, 0.065, 0.395, 0.1325, 0.46, 0.1975, 0.525], "SoftwareVersions": "syngo MR E11", "SpacingBetweenSlices": 3.3, "StationName": "AWP166182", "TaskName": "pictures", "TotalReadoutTime": 0.0340202, "TxRefAmp": 247.957, "dcmmeta_affine": [[-2.9974305629730225, 0.12405742704868317, 0.004803670570254326, 93.106689453125], [0.12402944266796112, 2.9973819255828857, -0.01961006410419941, -103.06210327148438], [0.005100366659462452, 0.017631519585847855, 3.299938201904297, -97.28307342529297], [0.0, 0.0, 0.0, 1.0]], "dcmmeta_reorient_transform": [[0.0, -1.0, 0.0, 63.0], [1.0, 0.0, 0.0, 0.0], [0.0, 0.0, 1.0, 0.0], [0.0, 0.0, 0.0, 1.0]], "dcmmeta_shape": [64, 64, 36, 176], "dcmmeta_slice_dim": 2, "dcmmeta_version": 0.6, "global": {"const": {"AcquisitionMatrix": [64, 0, 0, 64], "AngioFlag": "N", "BitsAllocated": 16, "BitsStored": 12, "BodyPartExamined": "BRAIN", "Columns": 384, "EchoNumbers": 1, "EchoTime": 32.0, "EchoTrainLength": 64, "FlipAngle": 40.0, "HighBit": 11, "ImageOrientationPatient": [0.99914356014147, -0.0413431471008, 0.0017001222373, 0.04135247620504, 0.99912733500165, -0.0058771731488], "ImagePositionPatient": [-600.36040612359, -545.50937630148, -94.16730663882], "ImageType": ["ORIGINAL", "PRIMARY", "M", "ND", "NORM", "MOSAIC"], "ImagedNucleus": "1H", "ImagingFrequency": 123.256444, "InPlanePhaseEncodingDirection": "COL", "MRAcquisitionType": "2D", "MagneticFieldStrength": 3.0, "Manufacturer": "SIEMENS", "ManufacturerModelName": "Prisma", "Modality": "MR", "NumberOfAverages": 1.0, "NumberOfPhaseEncodingSteps": 64, "PercentPhaseFieldOfView": 100.0, "PercentSampling": 100.0, "PerformedProcedureStepStartTime": "100123.729000", "PhotometricInterpretation": "MONOCHROME2", "PixelBandwidth": 2300.0, "PixelRepresentation": 0, "PixelSpacing": [3.0, 3.0], "ProtocolName": "cmrr_mbep2d_Pictures_AP_RDS", "RepetitionTime": 610.0, "Rows": 384, "SAR": 0.29795084749606, "SamplesPerPixel": 1, "ScanOptions": "FS", "ScanningSequence": "EP", "SequenceName": "*epfid2d1_64", "SequenceVariant": "SK", "SeriesDescription": "cmrr_mbep2d_Pictures_AP_RDS", "SeriesNumber": 10, "SeriesTime": "102735.709000", "SliceLocation": -96.533283821781, "SliceThickness": 3.0, "SmallestImagePixelValue": 0, "SoftwareVersions": "syngo MR E11", "SpacingBetweenSlices": 3.2999999100865, "SpecificCharacterSet": "ISO_IR 100", "StudyID": "1", "StudyTime": "100123.624000", "TransmitCoilName": "Body", "VariableFlipAngleFlag": "N", "WindowCenterWidthExplanation": "Algo1"}, "slices": {}}, "time": {"samples": {"AcquisitionNumber": [1, 2, 3, 4, 5, 6, 7, 8, 9, 10, 11, 12, 13, 14, 15, 16, 17, 18, 19, 20, 21, 22, 23, 24, 25, 26, 27, 28, 29, 30, 31, 32, 33, 34, 35, 36, 37, 38, 39, 40, 41, 42, 43, 44, 45, 46, 47, 48, 49, 50, 51, 52, 53, 54, 55, 56, 57, 58, 59, 60, 61, 62, 63, 64, 65, 66, 67, 68, 69, 70, 71, 72, 73, 74, 75, 76, 77, 78, 79, 80, 81, 82, 83, 84, 85, 86, 87, 88, 89, 90, 91, 92, 93, 94, 95, 96, 97, 98, 99, 100, 101, 102, 103, 104, 105, 106, 107, 108, 109, 110, 111, 112, 113, 114, 115, 116, 117, 118, 119, 120, 121, 122, 123, 124, 125, 126, 127, 128, 129, 130, 131, 132, 133, 134, 135, 136, 137, 138, 139, 140, 141, 142, 143, 144, 145, 146, 147, 148, 149, 150, 151, 152, 153, 154, 155, 156, 157, 158, 159, 160, 161, 162, 163, 164, 165, 166, 167, 168, 169, 170, 171, 172, 173, 174, 175, 176], "AcquisitionTime": ["102716.680000", "102717.290000", "102717.900000", "102718.510000", "102719.120000", "102719.730000", "102720.340000", "102720.950000", "102721.560000", "102722.170000", "102722.780000", "102723.390000", "102724.000000", "102724.610000", "102725.220000", "102725.830000", "102726.440000", "102727.050000", "102727.660000", "102728.270000", "102728.880000", "102729.490000", "102730.100000", "102730.710000", "102731.320000", "102731.930000", "102732.540000", "102733.150000", "102733.760000", "102734.370000", "102734.980000", "102735.590000", "102736.200000", "102736.810000", "102737.420000", "102738.030000", "102738.640000", "102739.250000", "102739.860000", "102740.470000", "102741.080000", "102741.690000", "102742.300000", "102742.910000", "102743.520000", "102744.130000", "102744.740000", "102745.350000", "102745.960000", "102746.570000", "102747.180000", "102747.790000", "102748.400000", "102749.010000", "102749.620000", "102750.230000", "102750.840000", "102751.450000", "102752.060000", "102752.670000", "102753.280000", "102753.890000", "102754.500000", "102755.110000", "102755.720000", "102756.330000", "102756.940000", "102757.550000", "102758.160000", "102758.770000", "102759.380000", "102759.990000", "102800.600000", "102801.210000", "102801.820000", "102802.430000", "102803.040000", "102803.650000", "102804.260000", "102804.870000", "102805.480000", "102806.090000", "102806.700000", "102807.310000", "102807.920000", "102808.530000", "102809.140000", "102809.750000", "102810.360000", "102810.970000", "102811.580000", "102812.190000", "102812.800000", "102813.410000", "102814.020000", "102814.630000", "102815.240000", "102815.850000", "102816.460000", "102817.070000", "102817.680000", "102818.290000", "102818.900000", "102819.510000", "102820.120000", "102820.730000", "102821.340000", "102821.950000", "102822.560000", "102823.170000", "102823.780000", "102824.390000", "102825.000000", "102825.610000", "102826.220000", "102826.830000", "102827.440000", "102828.050000", "102828.660000", "102829.270000", "102829.880000", "102830.490000", "102831.100000", "102831.710000", "102832.320000", "102832.930000", "102833.540000", "102834.150000", "102834.760000", "102835.370000", "102835.980000", "102836.590000", "102837.200000", "102837.810000", "102838.420000", "102839.030000", "102839.640000", "102840.250000", "102840.860000", "102841.470000", "102842.080000", "102842.690000", "102843.300000", "102843.910000", "102844.520000", "102845.130000", "102845.740000", "102846.350000", "102846.960000", "102847.570000", "102848.180000", "102848.790000", "102849.400000", "102850.010000", "102850.620000", "102851.230000", "102851.840000", "102852.450000", "102853.060000", "102853.670000", "102854.280000", "102854.890000", "102855.500000", "102856.110000", "102856.720000", "102857.330000", "102857.940000", "102858.550000", "102859.160000", "102859.770000", "102900.380000", "102900.990000", "102901.600000", "102902.210000", "102902.820000", "102903.430000"], "ContentTime": ["102735.713000", "102735.747000", "102735.749000", "102735.751000", "102735.754000", "102735.756000", "102735.758000", "102735.761000", "102735.763000", "102735.765000", "102735.768000", "102735.770000", "102735.772000", "102735.775000", "102735.782000", "102735.785000", "102735.787000", "102735.789000", "102735.792000", "102735.806000", "102735.809000", "102735.811000", "102735.813000", "102735.816000", "102735.818000", "102735.820000", "102735.823000", "102735.825000", "102735.828000", "102755.708000", "102755.711000", "102755.720000", "102755.722000", "102755.725000", "102755.727000", "102755.730000", "102755.732000", "102755.734000", "102755.737000", "102755.739000", "102755.741000", "102755.744000", "102755.750000", "102755.752000", "102755.754000", "102755.757000", "102755.759000", "102755.761000", "102755.764000", "102755.769000", "102755.771000", "102755.774000", "102755.777000", "102755.779000", "102755.782000", "102755.784000", "102755.786000", "102755.789000", "102755.791000", "102755.794000", "102755.796000", "102755.798000", "102815.707000", "102815.710000", "102815.712000", "102815.715000", "102815.717000", "102815.719000", "102815.721000", "102815.724000", "102815.726000", "102815.728000", "102815.731000", "102815.733000", "102815.735000", "102815.738000", "102815.740000", "102815.743000", "102815.745000", "102815.747000", "102815.750000", "102815.752000", "102815.754000", "102815.757000", "102815.759000", "102815.761000", "102815.764000", "102815.766000", "102815.769000", "102815.771000", "102815.773000", "102815.776000", "102815.778000", "102815.780000", "102815.783000", "102835.707000", "102835.710000", "102835.713000", "102835.715000", "102835.717000", "102835.720000", "102835.722000", "102835.724000", "102835.727000", "102835.729000", "102835.731000", "102835.734000", "102835.736000", "102835.738000", "102835.740000", "102835.743000", "102835.745000", "102835.748000", "102835.750000", "102835.753000", "102835.755000", "102835.757000", "102835.760000", "102835.762000", "102835.764000", "102835.767000", "102835.769000", "102835.771000", "102835.774000", "102835.776000", "102835.779000", "102835.781000", "102835.784000", "102855.708000", "102855.710000", "102855.720000", "102855.723000", "102855.726000", "102855.728000", "102855.731000", "102855.733000", "102855.736000", "102855.738000", "102855.741000", "102855.743000", "102855.745000", "102855.748000", "102855.750000", "102855.752000", "102855.755000", "102855.757000", "102855.759000", "102855.762000", "102855.764000", "102855.766000", "102855.769000", "102855.771000", "102855.774000", "102855.776000", "102855.778000", "102855.781000", "102855.783000", "102855.798000", "102855.801000", "102855.803000", "102905.583000", "102905.586000", "102905.588000", "102905.590000", "102905.593000", "102905.595000", "102905.597000", "102905.600000", "102905.602000", "102905.604000", "102905.607000", "102905.609000", "102905.612000", "102905.618000", "102905.621000", "102905.624000"], "InstanceCreationTime": ["102735.713000", "102735.747000", "102735.749000", "102735.751000", "102735.754000", "102735.756000", "102735.758000", "102735.761000", "102735.763000", "102735.765000", "102735.768000", "102735.770000", "102735.772000", "102735.775000", "102735.782000", "102735.785000", "102735.787000", "102735.789000", "102735.792000", "102735.806000", "102735.809000", "102735.811000", "102735.813000", "102735.816000", "102735.818000", "102735.820000", "102735.823000", "102735.825000", "102735.828000", "102755.708000", "102755.711000", "102755.720000", "102755.722000", "102755.725000", "102755.727000", "102755.730000", "102755.732000", "102755.734000", "102755.737000", "102755.739000", "102755.741000", "102755.744000", "102755.750000", "102755.752000", "102755.754000", "102755.757000", "102755.759000", "102755.761000", "102755.764000", "102755.769000", "102755.771000", "102755.774000", "102755.777000", "102755.779000", "102755.782000", "102755.784000", "102755.786000", "102755.789000", "102755.791000", "102755.794000", "102755.796000", "102755.798000", "102815.707000", "102815.710000", "102815.712000", "102815.715000", "102815.717000", "102815.719000", "102815.721000", "102815.724000", "102815.726000", "102815.728000", "102815.731000", "102815.733000", "102815.735000", "102815.738000", "102815.740000", "102815.743000", "102815.745000", "102815.747000", "102815.750000", "102815.752000", "102815.754000", "102815.757000", "102815.759000", "102815.761000", "102815.764000", "102815.766000", "102815.769000", "102815.771000", "102815.773000", "102815.776000", "102815.778000", "102815.780000", "102815.783000", "102835.707000", "102835.710000", "102835.713000", "102835.715000", "102835.717000", "102835.720000", "102835.722000", "102835.724000", "102835.727000", "102835.729000", "102835.731000", "102835.734000", "102835.736000", "102835.738000", "102835.740000", "102835.743000", "102835.745000", "102835.748000", "102835.750000", "102835.753000", "102835.755000", "102835.757000", "102835.760000", "102835.762000", "102835.764000", "102835.767000", "102835.769000", "102835.771000", "102835.774000", "102835.776000", "102835.779000", "102835.781000", "102835.784000", "102855.708000", "102855.710000", "102855.720000", "102855.723000", "102855.726000", "102855.728000", "102855.731000", "102855.733000", "102855.736000", "102855.738000", "102855.741000", "102855.743000", "102855.745000", "102855.748000", "102855.750000", "102855.752000", "102855.755000", "102855.757000", "102855.759000", "102855.762000", "102855.764000", "102855.766000", "102855.769000", "102855.771000", "102855.774000", "102855.776000", "102855.778000", "102855.781000", "102855.783000", "102855.798000", "102855.801000", "102855.803000", "102905.583000", "102905.586000", "102905.588000", "102905.590000", "102905.593000", "102905.595000", "102905.597000", "102905.600000", "102905.602000", "102905.604000", "102905.607000", "102905.609000", "102905.612000", "102905.618000", "102905.621000", "102905.624000"], "InstanceNumber": [1, 2, 3, 4, 5, 6, 7, 8, 9, 10, 11, 12, 13, 14, 15, 16, 17, 18, 19, 20, 21, 22, 23, 24, 25, 26, 27, 28, 29, 30, 31, 32, 33, 34, 35, 36, 37, 38, 39, 40, 41, 42, 43, 44, 45, 46, 47, 48, 49, 50, 51, 52, 53, 54, 55, 56, 57, 58, 59, 60, 61, 62, 63, 64, 65, 66, 67, 68, 69, 70, 71, 72, 73, 74, 75, 76, 77, 78, 79, 80, 81, 82, 83, 84, 85, 86, 87, 88, 89, 90, 91, 92, 93, 94, 95, 96, 97, 98, 99, 100, 101, 102, 103, 104, 105, 106, 107, 108, 109, 110, 111, 112, 113, 114, 115, 116, 117, 118, 119, 120, 121, 122, 123, 124, 125, 126, 127, 128, 129, 130, 131, 132, 133, 134, 135, 136, 137, 138, 139, 140, 141, 142, 143, 144, 145, 146, 147, 148, 149, 150, 151, 152, 153, 154, 155, 156, 157, 158, 159, 160, 161, 162, 163, 164, 165, 166, 167, 168, 169, 170, 171, 172, 173, 174, 175, 176], "LargestImagePixelValue": [459, 458, 446, 440, 448, 451, 456, 451, 452, 453, 449, 465, 462, 451, 451, 456, 463, 465, 458, 460, 458, 456, 455, 461, 458, 470, 462, 460, 456, 461, 458, 463, 467, 456, 479, 472, 482, 444, 459, 457, 451, 453, 449, 442, 439, 441, 436, 434, 443, 447, 470, 448, 458, 481, 446, 471, 488, 464, 501, 464, 476, 492, 484, 465, 518, 462, 473, 467, 497, 475, 458, 455, 444, 446, 448, 439, 438, 453, 446, 489, 466, 460, 451, 453, 451, 453, 466, 455, 448, 452, 461, 460, 457, 456, 452, 456, 458, 453, 456, 453, 458, 460, 471, 454, 456, 455, 453, 452, 467, 470, 482, 499, 490, 456, 450, 451, 466, 454, 458, 455, 453, 455, 450, 456, 459, 454, 458, 458, 509, 508, 498, 471, 471, 472, 468, 459, 452, 512, 485, 450, 507, 474, 446, 480, 453, 480, 474, 477, 491, 451, 473, 470, 453, 492, 458, 455, 483, 714, 473, 502, 459, 514, 466, 470, 478, 574, 496, 484, 479, 532, 490, 496, 487, 500, 466, 486], "WindowCenter": [309.0, 305.0, 302.0, 301.0, 301.0, 301.0, 301.0, 300.0, 300.0, 301.0, 300.0, 300.0, 301.0, 300.0, 300.0, 299.0, 301.0, 300.0, 299.0, 300.0, 299.0, 298.0, 299.0, 300.0, 299.0, 302.0, 301.0, 300.0, 300.0, 300.0, 301.0, 300.0, 296.0, 294.0, 307.0, 298.0, 303.0, 297.0, 301.0, 302.0, 302.0, 302.0, 301.0, 301.0, 300.0, 300.0, 299.0, 300.0, 300.0, 298.0, 302.0, 298.0, 299.0, 301.0, 288.0, 292.0, 300.0, 289.0, 305.0, 299.0, 299.0, 305.0, 305.0, 303.0, 305.0, 290.0, 303.0, 303.0, 302.0, 299.0, 300.0, 300.0, 300.0, 299.0, 298.0, 299.0, 299.0, 301.0, 297.0, 302.0, 301.0, 300.0, 299.0, 299.0, 300.0, 300.0, 303.0, 300.0, 298.0, 298.0, 299.0, 298.0, 298.0, 299.0, 299.0, 299.0, 300.0, 301.0, 299.0, 299.0, 299.0, 302.0, 302.0, 301.0, 300.0, 301.0, 300.0, 286.0, 298.0, 306.0, 302.0, 310.0, 302.0, 303.0, 300.0, 301.0, 302.0, 302.0, 302.0, 302.0, 302.0, 302.0, 301.0, 300.0, 300.0, 301.0, 300.0, 299.0, 294.0, 307.0, 303.0, 299.0, 299.0, 298.0, 298.0, 301.0, 299.0, 301.0, 299.0, 286.0, 304.0, 303.0, 296.0, 296.0, 294.0, 300.0, 296.0, 306.0, 302.0, 298.0, 302.0, 303.0, 296.0, 303.0, 304.0, 301.0, 295.0, 301.0, 296.0, 297.0, 288.0, 300.0, 296.0, 303.0, 304.0, 300.0, 300.0, 297.0, 301.0, 304.0, 301.0, 299.0, 298.0, 302.0, 299.0, 300.0], "WindowWidth": [669.0, 661.0, 656.0, 654.0, 653.0, 654.0, 653.0, 651.0, 651.0, 653.0, 652.0, 652.0, 653.0, 652.0, 651.0, 650.0, 653.0, 651.0, 649.0, 650.0, 650.0, 649.0, 650.0, 651.0, 649.0, 655.0, 653.0, 651.0, 651.0, 651.0, 652.0, 651.0, 643.0, 641.0, 666.0, 648.0, 657.0, 646.0, 654.0, 655.0, 655.0, 654.0, 653.0, 653.0, 652.0, 650.0, 650.0, 650.0, 652.0, 647.0, 656.0, 648.0, 650.0, 654.0, 628.0, 637.0, 652.0, 629.0, 660.0, 648.0, 649.0, 661.0, 660.0, 657.0, 659.0, 631.0, 656.0, 657.0, 656.0, 650.0, 651.0, 651.0, 651.0, 649.0, 648.0, 650.0, 649.0, 652.0, 645.0, 655.0, 653.0, 651.0, 649.0, 649.0, 652.0, 651.0, 656.0, 651.0, 648.0, 648.0, 649.0, 648.0, 648.0, 650.0, 649.0, 650.0, 651.0, 653.0, 650.0, 650.0, 650.0, 654.0, 656.0, 653.0, 651.0, 653.0, 650.0, 625.0, 647.0, 663.0, 655.0, 670.0, 655.0, 656.0, 651.0, 653.0, 656.0, 654.0, 655.0, 654.0, 655.0, 654.0, 653.0, 651.0, 651.0, 653.0, 652.0, 649.0, 640.0, 665.0, 657.0, 650.0, 649.0, 648.0, 647.0, 654.0, 650.0, 653.0, 649.0, 624.0, 660.0, 656.0, 644.0, 644.0, 640.0, 650.0, 643.0, 662.0, 656.0, 648.0, 656.0, 657.0, 643.0, 658.0, 659.0, 653.0, 641.0, 652.0, 644.0, 645.0, 628.0, 652.0, 643.0, 657.0, 660.0, 651.0, 651.0, 646.0, 653.0, 659.0, 653.0, 650.0, 649.0, 656.0, 650.0, 652.0]}, "slices": {}}, "EventTimestamp": "10-29-44"}