{"AcquisitionMatrixPE": 64, "AcquisitionNumber": 1, "AcquisitionTime": "11:34:59.070000", "BandwidthPerPixelPhaseEncode": 28.935, "BaseResolution": 64, "BodyPartExamined": "BRAIN", "CoilCombinationMethod": "Sum of Squares", "ConsistencyInfo": "N4_VE11E_LATEST_20181129", "ConversionSoftware": "dcm2niix", "ConversionSoftwareVersion": "v1.0.20230411", "DerivedVendorReportedEchoSpacing": 0.000540003, "DeviceSerialNumber": "166182", "DwellTime": 3.4e-06, "EchoTime": 0.032, "EchoTrainLength": 64, "EffectiveEchoSpacing": 0.000540003, "FlipAngle": 40, "HeudiconvVersion": "0.13.1", "ImageOrientationPatientDICOM": [0.999662, 0.025999, -0.000452692, -0.0260025, 0.999389, -0.0233745], "ImageOrientationText": "Tra>Cor(-1.3)>Sag(0.0)", "ImageType": ["ORIGINAL", "PRIMARY", "M", "ND", "NORM", "MOSAIC"], "ImagingFrequency": 123.257336, "InPlanePhaseEncodingDirectionDICOM": "COL", "InstitutionAddress": "PEARSE STREET .,City,District,IE,D2", "InstitutionName": "TCIN", "InstitutionalDepartmentName": "MRI", "MRAcquisitionType": "2D", "MagneticFieldStrength": 3, "Manufacturer": "Siemens", "ManufacturersModelName": "Prisma", "Modality": "MR", "MultibandAccelerationFactor": 4, "NonlinearGradientCorrection": false, "PartialFourier": 1, "PatientPosition": "HFS", "PercentPhaseFOV": 100, "PercentSampling": 100, "PhaseEncodingDirection": "j-", "PhaseEncodingSteps": 64, "PhaseResolution": 1, "PixelBandwidth": 2300, "ProcedureStepDescription": "Rhodri^Head BOLD", "ProtocolName": "cmrr_mbep2d_bold_Pictures_AP", "PulseSequenceDetails": "%SiemensSeq%\\ep2d_bold", "ReceiveCoilActiveElements": "HC2,4,6,7;SC", "ReceiveCoilName": "HeadNeck_64", "ReconMatrixPE": 64, "RefLinesPE": 12, "RepetitionTime": 0.61, "SAR": 0.275277, "ScanOptions": "FS", "ScanningSequence": "EP", "SequenceName": "*epfid2d1_64", "SequenceVariant": "SK", "SeriesDescription": "cmrr_mbep2d_bold_Pictures_AP", "SeriesNumber": 5, "ShimSetting": [-3689, -7552, 3949, 1165, -39, 323, 270, 351], "SliceThickness": 3, "SliceTiming": [0.2625, 0, 0.3275, 0.065, 0.3925, 0.13, 0.4575, 0.195, 0.525, 0.2625, 0, 0.3275, 0.065, 0.3925, 0.13, 0.4575, 0.195, 0.525, 0.2625, 0, 0.3275, 0.065, 0.3925, 0.13, 0.4575, 0.195, 0.525, 0.2625, 0, 0.3275, 0.065, 0.3925, 0.13, 0.4575, 0.195, 0.525], "SoftwareVersions": "syngo MR E11", "SpacingBetweenSlices": 3.3, "StationName": "AWP166182", "TaskName": "pictures", "TotalReadoutTime": 0.0340202, "TxRefAmp": 226.135, "dcmmeta_affine": [[-2.998985528945923, -0.07800736278295517, 0.0005124867893755436, 99.71278381347656], [-0.07799693197011948, 2.9981656074523926, -0.07714873552322388, -103.82295989990234], [-0.001358075300231576, 0.07012360543012619, 3.299098014831543, -85.60610961914062], [0.0, 0.0, 0.0, 1.0]], "dcmmeta_reorient_transform": [[0.0, -1.0, 0.0, 63.0], [1.0, 0.0, 0.0, 0.0], [0.0, 0.0, 1.0, 0.0], [0.0, 0.0, 0.0, 1.0]], "dcmmeta_shape": [64, 64, 36, 510], "dcmmeta_slice_dim": 2, "dcmmeta_version": 0.6, "global": {"const": {"AcquisitionMatrix": [64, 0, 0, 64], "AngioFlag": "N", "BitsAllocated": 16, "BitsStored": 12, "BodyPartExamined": "BRAIN", "Columns": 384, "EchoNumbers": 1, "EchoTime": 32.0, "EchoTrainLength": 64, "FlipAngle": 40.0, "HighBit": 11, "ImageOrientationPatient": [0.99966186698777, 0.02599897614677, -0.0004526917695, -0.026002453206, 0.99938856482215, -0.0233745359312], "ImagePositionPatient": [-562.1548349964, -577.24749499092, -69.751255369789], "ImageType": ["ORIGINAL", "PRIMARY", "M", "ND", "NORM", "MOSAIC"], "ImagedNucleus": "1H", "ImagingFrequency": 123.257336, "InPlanePhaseEncodingDirection": "COL", "MRAcquisitionType": "2D", "MagneticFieldStrength": 3.0, "Manufacturer": "SIEMENS", "ManufacturerModelName": "Prisma", "Modality": "MR", "NumberOfAverages": 1.0, "NumberOfPhaseEncodingSteps": 64, "PercentPhaseFieldOfView": 100.0, "PercentSampling": 100.0, "PerformedProcedureStepStartTime": "112143.002000", "PhotometricInterpretation": "MONOCHROME2", "PixelBandwidth": 2300.0, "PixelRepresentation": 0, "PixelSpacing": [3.0, 3.0], "ProtocolName": "cmrr_mbep2d_bold_Pictures_AP", "RepetitionTime": 610.0, "Rows": 384, "SAR": 0.27527706720403, "SamplesPerPixel": 1, "ScanOptions": "FS", "ScanningSequence": "EP", "SequenceName": "*epfid2d1_64", "SequenceVariant": "SK", "SeriesDescription": "cmrr_mbep2d_bold_Pictures_AP", "SeriesNumber": 5, "SeriesTime": "113524.716000", "SliceLocation": -83.140013317088, "SliceThickness": 3.0, "SmallestImagePixelValue": 0, "SoftwareVersions": "syngo MR E11", "SpacingBetweenSlices": 3.300000067474, "SpecificCharacterSet": "ISO_IR 100", "StudyID": "2", "StudyTime": "112142.941000", "TransmitCoilName": "Body", "VariableFlipAngleFlag": "N", "WindowCenterWidthExplanation": "Algo1"}, "slices": {}}, "time": {"samples": {"AcquisitionNumber": [1, 2, 3, 4, 5, 6, 7, 8, 9, 10, 11, 12, 13, 14, 15, 16, 17, 18, 19, 20, 21, 22, 23, 24, 25, 26, 27, 28, 29, 30, 31, 32, 33, 34, 35, 36, 37, 38, 39, 40, 41, 42, 43, 44, 45, 46, 47, 48, 49, 50, 51, 52, 53, 54, 55, 56, 57, 58, 59, 60, 61, 62, 63, 64, 65, 66, 67, 68, 69, 70, 71, 72, 73, 74, 75, 76, 77, 78, 79, 80, 81, 82, 83, 84, 85, 86, 87, 88, 89, 90, 91, 92, 93, 94, 95, 96, 97, 98, 99, 100, 101, 102, 103, 104, 105, 106, 107, 108, 109, 110, 111, 112, 113, 114, 115, 116, 117, 118, 119, 120, 121, 122, 123, 124, 125, 126, 127, 128, 129, 130, 131, 132, 133, 134, 135, 136, 137, 138, 139, 140, 141, 142, 143, 144, 145, 146, 147, 148, 149, 150, 151, 152, 153, 154, 155, 156, 157, 158, 159, 160, 161, 162, 163, 164, 165, 166, 167, 168, 169, 170, 171, 172, 173, 174, 175, 176, 177, 178, 179, 180, 181, 182, 183, 184, 185, 186, 187, 188, 189, 190, 191, 192, 193, 194, 195, 196, 197, 198, 199, 200, 201, 202, 203, 204, 205, 206, 207, 208, 209, 210, 211, 212, 213, 214, 215, 216, 217, 218, 219, 220, 221, 222, 223, 224, 225, 226, 227, 228, 229, 230, 231, 232, 233, 234, 235, 236, 237, 238, 239, 240, 241, 242, 243, 244, 245, 246, 247, 248, 249, 250, 251, 252, 253, 254, 255, 256, 257, 258, 259, 260, 261, 262, 263, 264, 265, 266, 267, 268, 269, 270, 271, 272, 273, 274, 275, 276, 277, 278, 279, 280, 281, 282, 283, 284, 285, 286, 287, 288, 289, 290, 291, 292, 293, 294, 295, 296, 297, 298, 299, 300, 301, 302, 303, 304, 305, 306, 307, 308, 309, 310, 311, 312, 313, 314, 315, 316, 317, 318, 319, 320, 321, 322, 323, 324, 325, 326, 327, 328, 329, 330, 331, 332, 333, 334, 335, 336, 337, 338, 339, 340, 341, 342, 343, 344, 345, 346, 347, 348, 349, 350, 351, 352, 353, 354, 355, 356, 357, 358, 359, 360, 361, 362, 363, 364, 365, 366, 367, 368, 369, 370, 371, 372, 373, 374, 375, 376, 377, 378, 379, 380, 381, 382, 383, 384, 385, 386, 387, 388, 389, 390, 391, 392, 393, 394, 395, 396, 397, 398, 399, 400, 401, 402, 403, 404, 405, 406, 407, 408, 409, 410, 411, 412, 413, 414, 415, 416, 417, 418, 419, 420, 421, 422, 423, 424, 425, 426, 427, 428, 429, 430, 431, 432, 433, 434, 435, 436, 437, 438, 439, 440, 441, 442, 443, 444, 445, 446, 447, 448, 449, 450, 451, 452, 453, 454, 455, 456, 457, 458, 459, 460, 461, 462, 463, 464, 465, 466, 467, 468, 469, 470, 471, 472, 473, 474, 475, 476, 477, 478, 479, 480, 481, 482, 483, 484, 485, 486, 487, 488, 489, 490, 491, 492, 493, 494, 495, 496, 497, 498, 499, 500, 501, 502, 503, 504, 505, 506, 507, 508, 509, 510], "AcquisitionTime": ["113459.070000", "113459.680000", "113500.290000", "113500.900000", "113501.510000", "113502.120000", "113502.730000", "113503.340000", "113503.950000", "113504.560000", "113505.170000", "113505.780000", "113506.390000", "113507.000000", "113507.610000", "113508.220000", "113508.830000", "113509.440000", "113510.050000", "113510.660000", "113511.270000", "113511.880000", "113512.490000", "113513.100000", "113513.710000", "113514.320000", "113514.930000", "113515.540000", "113516.150000", "113516.760000", "113517.370000", "113517.980000", "113518.590000", "113519.200000", "113519.810000", "113520.420000", "113521.030000", "113521.640000", "113522.250000", "113522.860000", "113523.470000", "113524.080000", "113524.690000", "113525.300000", "113525.910000", "113526.520000", "113527.130000", "113527.740000", "113528.350000", "113528.960000", "113529.570000", "113530.180000", "113530.790000", "113531.400000", "113532.010000", "113532.620000", "113533.230000", "113533.840000", "113534.450000", "113535.060000", "113535.670000", "113536.280000", "113536.890000", "113537.500000", "113538.110000", "113538.720000", "113539.330000", "113539.940000", "113540.550000", "113541.160000", "113541.770000", "113542.380000", "113542.990000", "113543.600000", "113544.210000", "113544.820000", "113545.430000", "113546.040000", "113546.650000", "113547.260000", "113547.870000", "113548.480000", "113549.090000", "113549.700000", "113550.310000", "113550.920000", "113551.530000", "113552.140000", "113552.750000", "113553.360000", "113553.970000", "113554.580000", "113555.190000", "113555.800000", "113556.410000", "113557.020000", "113557.630000", "113558.240000", "113558.850000", "113559.460000", "113600.070000", "113600.680000", "113601.290000", "113601.900000", "113602.510000", "113603.120000", "113603.730000", "113604.340000", "113604.950000", "113605.560000", "113606.170000", "113606.780000", "113607.390000", "113608.000000", "113608.610000", "113609.220000", "113609.830000", "113610.440000", "113611.050000", "113611.660000", "113612.270000", "113612.880000", "113613.490000", "113614.100000", "113614.710000", "113615.320000", "113615.930000", "113616.540000", "113617.150000", "113617.760000", "113618.370000", "113618.980000", "113619.590000", "113620.200000", "113620.810000", "113621.420000", "113622.030000", "113622.640000", "113623.250000", "113623.860000", "113624.470000", "113625.080000", "113625.690000", "113626.300000", "113626.910000", "113627.520000", "113628.130000", "113628.740000", "113629.350000", "113629.960000", "113630.570000", "113631.180000", "113631.790000", "113632.400000", "113633.010000", "113633.620000", "113634.230000", "113634.840000", "113635.450000", "113636.060000", "113636.670000", "113637.280000", "113637.890000", "113638.500000", "113639.110000", "113639.720000", "113640.330000", "113640.940000", "113641.550000", "113642.160000", "113642.770000", "113643.380000", "113643.990000", "113644.600000", "113645.210000", "113645.820000", "113646.430000", "113647.040000", "113647.650000", "113648.260000", "113648.870000", "113649.480000", "113650.090000", "113650.700000", "113651.310000", "113651.920000", "113652.530000", "113653.140000", "113653.750000", "113654.360000", "113654.970000", "113655.580000", "113656.190000", "113656.800000", "113657.410000", "113658.020000", "113658.630000", "113659.240000", "113659.850000", "113700.460000", "113701.070000", "113701.680000", "113702.290000", "113702.900000", "113703.510000", "113704.120000", "113704.730000", "113705.340000", "113705.950000", "113706.560000", "113707.170000", "113707.780000", "113708.390000", "113709.000000", "113709.610000", "113710.220000", "113710.830000", "113711.440000", "113712.050000", "113712.660000", "113713.270000", "113713.880000", "113714.490000", "113715.100000", "113715.710000", "113716.320000", "113716.930000", "113717.540000", "113718.150000", "113718.760000", "113719.370000", "113719.980000", "113720.590000", "113721.200000", "113721.810000", "113722.420000", "113723.030000", "113723.640000", "113724.250000", "113724.860000", "113725.470000", "113726.080000", "113726.690000", "113727.300000", "113727.910000", "113728.520000", "113729.130000", "113729.740000", "113730.350000", "113730.960000", "113731.570000", "113732.180000", "113732.790000", "113733.400000", "113734.010000", "113734.620000", "113735.230000", "113735.840000", "113736.450000", "113737.060000", "113737.670000", "113738.280000", "113738.890000", "113739.500000", "113740.110000", "113740.720000", "113741.330000", "113741.940000", "113742.550000", "113743.160000", "113743.770000", "113744.380000", "113744.990000", "113745.600000", "113746.210000", "113746.820000", "113747.430000", "113748.040000", "113748.650000", "113749.260000", "113749.870000", "113750.480000", "113751.090000", "113751.700000", "113752.310000", "113752.920000", "113753.530000", "113754.140000", "113754.750000", "113755.360000", "113755.970000", "113756.580000", "113757.190000", "113757.800000", "113758.410000", "113759.020000", "113759.630000", "113800.240000", "113800.850000", "113801.460000", "113802.070000", "113802.680000", "113803.290000", "113803.900000", "113804.510000", "113805.120000", "113805.730000", "113806.340000", "113806.950000", "113807.560000", "113808.170000", "113808.780000", "113809.390000", "113810.000000", "113810.610000", "113811.220000", "113811.830000", "113812.440000", "113813.050000", "113813.660000", "113814.270000", "113814.880000", "113815.490000", "113816.100000", "113816.710000", "113817.320000", "113817.930000", "113818.540000", "113819.150000", "113819.760000", "113820.370000", "113820.980000", "113821.590000", "113822.200000", "113822.810000", "113823.420000", "113824.030000", "113824.640000", "113825.250000", "113825.860000", "113826.470000", "113827.080000", "113827.690000", "113828.300000", "113828.910000", "113829.520000", "113830.130000", "113830.740000", "113831.350000", "113831.960000", "113832.570000", "113833.180000", "113833.790000", "113834.400000", "113835.010000", "113835.620000", "113836.230000", "113836.840000", "113837.450000", "113838.060000", "113838.670000", "113839.280000", "113839.890000", "113840.500000", "113841.110000", "113841.720000", "113842.330000", "113842.940000", "113843.550000", "113844.160000", "113844.770000", "113845.380000", "113845.990000", "113846.600000", "113847.210000", "113847.820000", "113848.430000", "113849.040000", "113849.650000", "113850.260000", "113850.870000", "113851.480000", "113852.090000", "113852.700000", "113853.310000", "113853.920000", "113854.530000", "113855.140000", "113855.750000", "113856.360000", "113856.970000", "113857.580000", "113858.190000", "113858.800000", "113859.410000", "113900.020000", "113900.630000", "113901.240000", "113901.850000", "113902.460000", "113903.070000", "113903.680000", "113904.290000", "113904.900000", "113905.510000", "113906.120000", "113906.730000", "113907.340000", "113907.950000", "113908.560000", "113909.170000", "113909.780000", "113910.390000", "113911.000000", "113911.610000", "113912.220000", "113912.830000", "113913.440000", "113914.050000", "113914.660000", "113915.270000", "113915.880000", "113916.490000", "113917.100000", "113917.710000", "113918.320000", "113918.930000", "113919.540000", "113920.150000", "113920.760000", "113921.370000", "113921.980000", "113922.590000", "113923.200000", "113923.810000", "113924.420000", "113925.030000", "113925.640000", "113926.250000", "113926.860000", "113927.470000", "113928.080000", "113928.690000", "113929.300000", "113929.910000", "113930.520000", "113931.130000", "113931.740000", "113932.350000", "113932.960000", "113933.570000", "113934.180000", "113934.790000", "113935.400000", "113936.010000", "113936.620000", "113937.230000", "113937.840000", "113938.450000", "113939.060000", "113939.670000", "113940.280000", "113940.890000", "113941.500000", "113942.110000", "113942.720000", "113943.330000", "113943.940000", "113944.550000", "113945.160000", "113945.770000", "113946.380000", "113946.990000", "113947.600000", "113948.210000", "113948.820000", "113949.430000", "113950.040000", "113950.650000", "113951.260000", "113951.870000", "113952.480000", "113953.090000", "113953.700000", "113954.310000", "113954.920000", "113955.530000", "113956.140000", "113956.750000", "113957.360000", "113957.970000", "113958.580000", "113959.190000", "113959.800000", "114000.410000", "114001.020000", "114001.630000", "114002.240000", "114002.850000", "114003.460000", "114004.070000", "114004.680000", "114005.290000", "114005.900000", "114006.510000", "114007.120000", "114007.730000", "114008.340000", "114008.950000", "114009.560000"], "ContentTime": ["113524.720000", "113524.724000", "113524.732000", "113524.734000", "113524.737000", "113524.739000", "113524.742000", "113524.744000", "113524.747000", "113524.749000", "113524.752000", "113524.754000", "113524.757000", "113524.760000", "113524.770000", "113524.774000", "113524.777000", "113524.780000", "113524.783000", "113524.785000", "113524.787000", "113524.790000", "113524.792000", "113524.795000", "113524.797000", "113524.800000", "113524.814000", "113524.817000", "113524.819000", "113524.822000", "113524.825000", "113524.827000", "113524.830000", "113524.832000", "113524.834000", "113524.837000", "113524.839000", "113524.842000", "113524.844000", "113524.847000", "113524.850000", "113544.714000", "113544.717000", "113544.720000", "113544.722000", "113544.724000", "113544.727000", "113544.729000", "113544.731000", "113544.739000", "113544.742000", "113544.744000", "113544.747000", "113544.749000", "113544.751000", "113544.754000", "113544.756000", "113544.759000", "113544.761000", "113544.764000", "113544.766000", "113544.768000", "113544.771000", "113544.773000", "113544.775000", "113544.778000", "113544.780000", "113544.782000", "113544.785000", "113544.787000", "113544.789000", "113544.792000", "113544.794000", "113544.797000", "113604.714000", "113604.717000", "113604.720000", "113604.722000", "113604.725000", "113604.727000", "113604.729000", "113604.732000", "113604.734000", "113604.736000", "113604.739000", "113604.741000", "113604.743000", "113604.746000", "113604.748000", "113604.750000", "113604.753000", "113604.755000", "113604.758000", "113604.761000", "113604.793000", "113604.796000", "113604.799000", "113604.801000", "113604.803000", "113604.806000", "113604.808000", "113604.811000", "113604.813000", "113604.815000", "113604.818000", "113604.820000", "113624.714000", "113624.717000", "113624.719000", "113624.722000", "113624.724000", "113624.727000", "113624.730000", "113624.732000", "113624.735000", "113624.737000", "113624.740000", "113624.742000", "113624.745000", "113624.747000", "113624.749000", "113624.752000", "113624.754000", "113624.757000", "113624.759000", "113624.762000", "113624.764000", "113624.766000", "113624.769000", "113624.771000", "113624.774000", "113624.776000", "113624.779000", "113624.782000", "113624.784000", "113624.786000", "113624.789000", "113624.791000", "113624.799000", "113644.714000", "113644.717000", "113644.720000", "113644.722000", "113644.724000", "113644.727000", "113644.729000", "113644.732000", "113644.734000", "113644.736000", "113644.739000", "113644.741000", "113644.744000", "113644.746000", "113644.749000", "113644.751000", "113644.753000", "113644.756000", "113644.758000", "113644.761000", "113644.763000", "113644.765000", "113644.768000", "113644.770000", "113644.773000", "113644.775000", "113644.777000", "113644.780000", "113644.782000", "113644.785000", "113644.787000", "113644.789000", "113644.792000", "113704.715000", "113704.717000", "113704.720000", "113704.722000", "113704.724000", "113704.727000", "113704.729000", "113704.732000", "113704.734000", "113704.744000", "113704.746000", "113704.749000", "113704.751000", "113704.754000", "113704.756000", "113704.759000", "113704.761000", "113704.764000", "113704.766000", "113704.768000", "113704.771000", "113704.773000", "113704.776000", "113704.778000", "113704.781000", "113704.783000", "113704.786000", "113704.788000", "113704.791000", "113704.793000", "113704.795000", "113704.798000", "113704.877000", "113724.714000", "113724.717000", "113724.719000", "113724.722000", "113724.724000", "113724.726000", "113724.729000", "113724.731000", "113724.733000", "113724.736000", "113724.738000", "113724.740000", "113724.743000", "113724.745000", "113724.748000", "113724.750000", "113724.752000", "113724.755000", "113724.757000", "113724.760000", "113724.762000", "113724.765000", "113724.767000", "113724.769000", "113724.772000", "113724.774000", "113724.776000", "113724.779000", "113724.781000", "113724.784000", "113724.786000", "113724.788000", "113724.791000", "113744.714000", "113744.717000", "113744.720000", "113744.722000", "113744.725000", "113744.727000", "113744.730000", "113744.732000", "113744.735000", "113744.737000", "113744.740000", "113744.742000", "113744.744000", "113744.747000", "113744.749000", "113744.752000", "113744.754000", "113744.756000", "113744.759000", "113744.761000", "113744.764000", "113744.766000", "113744.769000", "113744.771000", "113744.773000", "113744.776000", "113744.778000", "113744.781000", "113744.783000", "113744.786000", "113744.788000", "113744.791000", "113804.714000", "113804.717000", "113804.719000", "113804.722000", "113804.725000", "113804.727000", "113804.729000", "113804.732000", "113804.734000", "113804.737000", "113804.739000", "113804.742000", "113804.744000", "113804.747000", "113804.749000", "113804.751000", "113804.754000", "113804.756000", "113804.759000", "113804.761000", "113804.764000", "113804.767000", "113804.769000", "113804.772000", "113804.774000", "113804.777000", "113804.779000", "113804.781000", "113804.784000", "113804.787000", "113804.789000", "113804.792000", "113804.794000", "113824.714000", "113824.717000", "113824.719000", "113824.722000", "113824.724000", "113824.726000", "113824.729000", "113824.731000", "113824.734000", "113824.736000", "113824.739000", "113824.741000", "113824.744000", "113824.746000", "113824.748000", "113824.751000", "113824.753000", "113824.756000", "113824.758000", "113824.761000", "113824.763000", "113824.766000", "113824.768000", "113824.770000", "113824.773000", "113824.775000", "113824.778000", "113824.780000", "113824.783000", "113824.785000", "113824.787000", "113824.790000", "113824.792000", "113844.714000", "113844.718000", "113844.720000", "113844.722000", "113844.725000", "113844.727000", "113844.730000", "113844.732000", "113844.735000", "113844.737000", "113844.739000", "113844.742000", "113844.744000", "113844.747000", "113844.749000", "113844.752000", "113844.754000", "113844.757000", "113844.759000", "113844.761000", "113844.764000", "113844.766000", "113844.769000", "113844.795000", "113844.797000", "113844.830000", "113844.832000", "113844.835000", "113844.837000", "113844.839000", "113844.842000", "113844.844000", "113844.847000", "113904.714000", "113904.717000", "113904.720000", "113904.722000", "113904.724000", "113904.727000", "113904.729000", "113904.732000", "113904.734000", "113904.737000", "113904.739000", "113904.742000", "113904.744000", "113904.746000", "113904.749000", "113904.751000", "113904.754000", "113904.756000", "113904.759000", "113904.761000", "113904.763000", "113904.766000", "113904.768000", "113904.771000", "113904.773000", "113904.775000", "113904.778000", "113904.780000", "113904.783000", "113904.785000", "113904.788000", "113904.790000", "113904.792000", "113924.714000", "113924.717000", "113924.719000", "113924.722000", "113924.724000", "113924.727000", "113924.729000", "113924.731000", "113924.734000", "113924.736000", "113924.739000", "113924.741000", "113924.743000", "113924.746000", "113924.748000", "113924.750000", "113924.753000", "113924.755000", "113924.758000", "113924.760000", "113924.762000", "113924.765000", "113924.767000", "113924.769000", "113924.772000", "113924.774000", "113924.776000", "113924.779000", "113924.781000", "113924.784000", "113924.786000", "113924.788000", "113944.714000", "113944.717000", "113944.719000", "113944.722000", "113944.724000", "113944.727000", "113944.729000", "113944.731000", "113944.734000", "113944.736000", "113944.738000", "113944.741000", "113944.743000", "113944.745000", "113944.748000", "113944.750000", "113944.753000", "113944.755000", "113944.757000", "113944.760000", "113944.762000", "113944.764000", "113944.767000", "113944.769000", "113944.772000", "113944.774000", "113944.776000", "113944.779000", "113944.781000", "113944.784000", "113944.786000", "113944.788000", "113944.791000", "114004.714000", "114004.717000", "114004.719000", "114004.722000", "114004.724000", "114004.726000", "114004.729000", "114004.731000", "114004.733000", "114004.736000", "114004.738000", "114004.741000", "114004.743000", "114004.745000", "114004.748000", "114004.750000", "114004.752000", "114004.755000", "114004.757000", "114004.760000", "114004.762000", "114004.765000", "114004.767000", "114004.769000", "114004.772000", "114004.774000", "114004.777000", "114004.779000", "114004.782000", "114004.784000", "114004.786000", "114004.789000", "114004.791000", "114010.556000", "114010.559000", "114010.561000", "114010.564000", "114010.566000", "114010.569000", "114010.571000", "114010.574000", "114010.576000", "114010.579000"], "InstanceCreationTime": ["113524.720000", "113524.724000", "113524.732000", "113524.734000", "113524.737000", "113524.739000", "113524.742000", "113524.744000", "113524.747000", "113524.749000", "113524.752000", "113524.754000", "113524.757000", "113524.760000", "113524.770000", "113524.774000", "113524.777000", "113524.780000", "113524.783000", "113524.785000", "113524.787000", "113524.790000", "113524.792000", "113524.795000", "113524.797000", "113524.800000", "113524.814000", "113524.817000", "113524.819000", "113524.822000", "113524.825000", "113524.827000", "113524.830000", "113524.832000", "113524.834000", "113524.837000", "113524.839000", "113524.842000", "113524.844000", "113524.847000", "113524.850000", "113544.714000", "113544.717000", "113544.720000", "113544.722000", "113544.724000", "113544.727000", "113544.729000", "113544.731000", "113544.739000", "113544.742000", "113544.744000", "113544.747000", "113544.749000", "113544.751000", "113544.754000", "113544.756000", "113544.759000", "113544.761000", "113544.764000", "113544.766000", "113544.768000", "113544.771000", "113544.773000", "113544.775000", "113544.778000", "113544.780000", "113544.782000", "113544.785000", "113544.787000", "113544.789000", "113544.792000", "113544.794000", "113544.797000", "113604.714000", "113604.717000", "113604.720000", "113604.722000", "113604.725000", "113604.727000", "113604.729000", "113604.732000", "113604.734000", "113604.736000", "113604.739000", "113604.741000", "113604.743000", "113604.746000", "113604.748000", "113604.750000", "113604.753000", "113604.755000", "113604.758000", "113604.761000", "113604.793000", "113604.796000", "113604.799000", "113604.801000", "113604.803000", "113604.806000", "113604.808000", "113604.811000", "113604.813000", "113604.815000", "113604.818000", "113604.820000", "113624.714000", "113624.717000", "113624.719000", "113624.722000", "113624.724000", "113624.727000", "113624.730000", "113624.732000", "113624.735000", "113624.737000", "113624.740000", "113624.742000", "113624.745000", "113624.747000", "113624.749000", "113624.752000", "113624.754000", "113624.757000", "113624.759000", "113624.762000", "113624.764000", "113624.766000", "113624.769000", "113624.771000", "113624.774000", "113624.776000", "113624.779000", "113624.782000", "113624.784000", "113624.786000", "113624.789000", "113624.791000", "113624.799000", "113644.714000", "113644.717000", "113644.720000", "113644.722000", "113644.724000", "113644.727000", "113644.729000", "113644.732000", "113644.734000", "113644.736000", "113644.739000", "113644.741000", "113644.744000", "113644.746000", "113644.749000", "113644.751000", "113644.753000", "113644.756000", "113644.758000", "113644.761000", "113644.763000", "113644.765000", "113644.768000", "113644.770000", "113644.773000", "113644.775000", "113644.777000", "113644.780000", "113644.782000", "113644.785000", "113644.787000", "113644.789000", "113644.792000", "113704.715000", "113704.717000", "113704.720000", "113704.722000", "113704.724000", "113704.727000", "113704.729000", "113704.732000", "113704.734000", "113704.744000", "113704.746000", "113704.749000", "113704.751000", "113704.754000", "113704.756000", "113704.759000", "113704.761000", "113704.764000", "113704.766000", "113704.768000", "113704.771000", "113704.773000", "113704.776000", "113704.778000", "113704.781000", "113704.783000", "113704.786000", "113704.788000", "113704.791000", "113704.793000", "113704.795000", "113704.798000", "113704.877000", "113724.714000", "113724.717000", "113724.719000", "113724.722000", "113724.724000", "113724.726000", "113724.729000", "113724.731000", "113724.733000", "113724.736000", "113724.738000", "113724.740000", "113724.743000", "113724.745000", "113724.748000", "113724.750000", "113724.752000", "113724.755000", "113724.757000", "113724.760000", "113724.762000", "113724.765000", "113724.767000", "113724.769000", "113724.772000", "113724.774000", "113724.776000", "113724.779000", "113724.781000", "113724.784000", "113724.786000", "113724.788000", "113724.791000", "113744.714000", "113744.717000", "113744.720000", "113744.722000", "113744.725000", "113744.727000", "113744.730000", "113744.732000", "113744.735000", "113744.737000", "113744.740000", "113744.742000", "113744.744000", "113744.747000", "113744.749000", "113744.752000", "113744.754000", "113744.756000", "113744.759000", "113744.761000", "113744.764000", "113744.766000", "113744.769000", "113744.771000", "113744.773000", "113744.776000", "113744.778000", "113744.781000", "113744.783000", "113744.786000", "113744.788000", "113744.791000", "113804.714000", "113804.717000", "113804.719000", "113804.722000", "113804.725000", "113804.727000", "113804.729000", "113804.732000", "113804.734000", "113804.737000", "113804.739000", "113804.742000", "113804.744000", "113804.747000", "113804.749000", "113804.751000", "113804.754000", "113804.756000", "113804.759000", "113804.761000", "113804.764000", "113804.767000", "113804.769000", "113804.772000", "113804.774000", "113804.777000", "113804.779000", "113804.781000", "113804.784000", "113804.787000", "113804.789000", "113804.792000", "113804.794000", "113824.714000", "113824.717000", "113824.719000", "113824.722000", "113824.724000", "113824.726000", "113824.729000", "113824.731000", "113824.734000", "113824.736000", "113824.739000", "113824.741000", "113824.744000", "113824.746000", "113824.748000", "113824.751000", "113824.