{"AcquisitionMatrixPE": 64, "AcquisitionNumber": 1, "AcquisitionTime": "11:47:20.725000", "BandwidthPerPixelPhaseEncode": 28.935, "BaseResolution": 64, "BodyPartExamined": "BRAIN", "CoilCombinationMethod": "Sum of Squares", "ConsistencyInfo": "N4_VE11E_LATEST_20181129", "ConversionSoftware": "dcm2niix", "ConversionSoftwareVersion": "v1.0.20230411", "DerivedVendorReportedEchoSpacing": 0.000540003, "DeviceSerialNumber": "166182", "DwellTime": 3.4e-06, "EchoTime": 0.032, "EchoTrainLength": 64, "EffectiveEchoSpacing": 0.000540003, "FlipAngle": 40, "HeudiconvVersion": "0.13.1", "ImageOrientationPatientDICOM": [0.999662, 0.025999, -0.000452692, -0.0260025, 0.999389, -0.0233745], "ImageOrientationText": "Tra>Cor(-1.3)>Sag(0.0)", "ImageType": ["ORIGINAL", "PRIMARY", "M", "ND", "NORM", "MOSAIC"], "ImagingFrequency": 123.257344, "InPlanePhaseEncodingDirectionDICOM": "COL", "InstitutionAddress": "PEARSE STREET .,City,District,IE,D2", "InstitutionName": "TCIN", "InstitutionalDepartmentName": "MRI", "MRAcquisitionType": "2D", "MagneticFieldStrength": 3, "Manufacturer": "Siemens", "ManufacturersModelName": "Prisma", "Modality": "MR", "MultibandAccelerationFactor": 4, "NonlinearGradientCorrection": false, "PartialFourier": 1, "PatientPosition": "HFS", "PercentPhaseFOV": 100, "PercentSampling": 100, "PhaseEncodingDirection": "j-", "PhaseEncodingSteps": 64, "PhaseResolution": 1, "PixelBandwidth": 2300, "ProcedureStepDescription": "Rhodri^Head BOLD", "ProtocolName": "cmrr_mbep2d_bold_Pictures_AP", "PulseSequenceDetails": "%SiemensSeq%\\ep2d_bold", "ReceiveCoilActiveElements": "HC2,4,6,7;SC", "ReceiveCoilName": "HeadNeck_64", "ReconMatrixPE": 64, "RefLinesPE": 12, "RepetitionTime": 0.61, "SAR": 0.275277, "ScanOptions": "FS", "ScanningSequence": "EP", "SequenceName": "*epfid2d1_64", "SequenceVariant": "SK", "SeriesDescription": "cmrr_mbep2d_bold_Pictures_AP", "SeriesNumber": 11, "ShimSetting": [-3689, -7552, 3949, 1165, -39, 323, 270, 351], "SliceThickness": 3, "SliceTiming": [0.2625, 0, 0.3275, 0.065, 0.3925, 0.13, 0.4575, 0.195, 0.5225, 0.2625, 0, 0.3275, 0.065, 0.3925, 0.13, 0.4575, 0.195, 0.5225, 0.2625, 0, 0.3275, 0.065, 0.3925, 0.13, 0.4575, 0.195, 0.5225, 0.2625, 0, 0.3275, 0.065, 0.3925, 0.13, 0.4575, 0.195, 0.5225], "SoftwareVersions": "syngo MR E11", "SpacingBetweenSlices": 3.3, "StationName": "AWP166182", "TaskName": "pictures", "TotalReadoutTime": 0.0340202, "TxRefAmp": 226.135, "dcmmeta_affine": [[-2.998985528945923, -0.07800736278295517, 0.0005124867893755436, 99.71278381347656], [-0.07799693197011948, 2.9981656074523926, -0.07714873552322388, -103.82295989990234], [-0.001358075300231576, 0.07012360543012619, 3.299098014831543, -85.60610961914062], [0.0, 0.0, 0.0, 1.0]], "dcmmeta_reorient_transform": [[0.0, -1.0, 0.0, 63.0], [1.0, 0.0, 0.0, 0.0], [0.0, 0.0, 1.0, 0.0], [0.0, 0.0, 0.0, 1.0]], "dcmmeta_shape": [64, 64, 36, 510], "dcmmeta_slice_dim": 2, "dcmmeta_version": 0.6, "global": {"const": {"AcquisitionMatrix": [64, 0, 0, 64], "AngioFlag": "N", "BitsAllocated": 16, "BitsStored": 12, "BodyPartExamined": "BRAIN", "Columns": 384, "EchoNumbers": 1, "EchoTime": 32.0, "EchoTrainLength": 64, "FlipAngle": 40.0, "HighBit": 11, "ImageOrientationPatient": [0.99966186698777, 0.02599897614677, -0.0004526917695, -0.026002453206, 0.99938856482215, -0.0233745359312], "ImagePositionPatient": [-562.1548349964, -577.24749499092, -69.751255369789], "ImageType": ["ORIGINAL", "PRIMARY", "M", "ND", "NORM", "MOSAIC"], "ImagedNucleus": "1H", "ImagingFrequency": 123.257344, "InPlanePhaseEncodingDirection": "COL", "MRAcquisitionType": "2D", "MagneticFieldStrength": 3.0, "Manufacturer": "SIEMENS", "ManufacturerModelName": "Prisma", "Modality": "MR", "NumberOfAverages": 1.0, "NumberOfPhaseEncodingSteps": 64, "PercentPhaseFieldOfView": 100.0, "PercentSampling": 100.0, "PerformedProcedureStepStartTime": "112143.002000", "PhotometricInterpretation": "MONOCHROME2", "PixelBandwidth": 2300.0, "PixelRepresentation": 0, "PixelSpacing": [3.0, 3.0], "ProtocolName": "cmrr_mbep2d_bold_Pictures_AP", "RepetitionTime": 610.0, "Rows": 384, "SAR": 0.27527706720403, "SamplesPerPixel": 1, "ScanOptions": "FS", "ScanningSequence": "EP", "SequenceName": "*epfid2d1_64", "SequenceVariant": "SK", "SeriesDescription": "cmrr_mbep2d_bold_Pictures_AP", "SeriesNumber": 11, "SeriesTime": "114744.715000", "SliceLocation": -83.140013317088, "SliceThickness": 3.0, "SmallestImagePixelValue": 0, "SoftwareVersions": "syngo MR E11", "SpacingBetweenSlices": 3.300000067474, "SpecificCharacterSet": "ISO_IR 100", "StudyID": "2", "StudyTime": "112142.941000", "TransmitCoilName": "Body", "VariableFlipAngleFlag": "N", "WindowCenterWidthExplanation": "Algo1"}, "slices": {}}, "time": {"samples": {"AcquisitionNumber": [1, 2, 3, 4, 5, 6, 7, 8, 9, 10, 11, 12, 13, 14, 15, 16, 17, 18, 19, 20, 21, 22, 23, 24, 25, 26, 27, 28, 29, 30, 31, 32, 33, 34, 35, 36, 37, 38, 39, 40, 41, 42, 43, 44, 45, 46, 47, 48, 49, 50, 51, 52, 53, 54, 55, 56, 57, 58, 59, 60, 61, 62, 63, 64, 65, 66, 67, 68, 69, 70, 71, 72, 73, 74, 75, 76, 77, 78, 79, 80, 81, 82, 83, 84, 85, 86, 87, 88, 89, 90, 91, 92, 93, 94, 95, 96, 97, 98, 99, 100, 101, 102, 103, 104, 105, 106, 107, 108, 109, 110, 111, 112, 113, 114, 115, 116, 117, 118, 119, 120, 121, 122, 123, 124, 125, 126, 127, 128, 129, 130, 131, 132, 133, 134, 135, 136, 137, 138, 139, 140, 141, 142, 143, 144, 145, 146, 147, 148, 149, 150, 151, 152, 153, 154, 155, 156, 157, 158, 159, 160, 161, 162, 163, 164, 165, 166, 167, 168, 169, 170, 171, 172, 173, 174, 175, 176, 177, 178, 179, 180, 181, 182, 183, 184, 185, 186, 187, 188, 189, 190, 191, 192, 193, 194, 195, 196, 197, 198, 199, 200, 201, 202, 203, 204, 205, 206, 207, 208, 209, 210, 211, 212, 213, 214, 215, 216, 217, 218, 219, 220, 221, 222, 223, 224, 225, 226, 227, 228, 229, 230, 231, 232, 233, 234, 235, 236, 237, 238, 239, 240, 241, 242, 243, 244, 245, 246, 247, 248, 249, 250, 251, 252, 253, 254, 255, 256, 257, 258, 259, 260, 261, 262, 263, 264, 265, 266, 267, 268, 269, 270, 271, 272, 273, 274, 275, 276, 277, 278, 279, 280, 281, 282, 283, 284, 285, 286, 287, 288, 289, 290, 291, 292, 293, 294, 295, 296, 297, 298, 299, 300, 301, 302, 303, 304, 305, 306, 307, 308, 309, 310, 311, 312, 313, 314, 315, 316, 317, 318, 319, 320, 321, 322, 323, 324, 325, 326, 327, 328, 329, 330, 331, 332, 333, 334, 335, 336, 337, 338, 339, 340, 341, 342, 343, 344, 345, 346, 347, 348, 349, 350, 351, 352, 353, 354, 355, 356, 357, 358, 359, 360, 361, 362, 363, 364, 365, 366, 367, 368, 369, 370, 371, 372, 373, 374, 375, 376, 377, 378, 379, 380, 381, 382, 383, 384, 385, 386, 387, 388, 389, 390, 391, 392, 393, 394, 395, 396, 397, 398, 399, 400, 401, 402, 403, 404, 405, 406, 407, 408, 409, 410, 411, 412, 413, 414, 415, 416, 417, 418, 419, 420, 421, 422, 423, 424, 425, 426, 427, 428, 429, 430, 431, 432, 433, 434, 435, 436, 437, 438, 439, 440, 441, 442, 443, 444, 445, 446, 447, 448, 449, 450, 451, 452, 453, 454, 455, 456, 457, 458, 459, 460, 461, 462, 463, 464, 465, 466, 467, 468, 469, 470, 471, 472, 473, 474, 475, 476, 477, 478, 479, 480, 481, 482, 483, 484, 485, 486, 487, 488, 489, 490, 491, 492, 493, 494, 495, 496, 497, 498, 499, 500, 501, 502, 503, 504, 505, 506, 507, 508, 509, 510], "AcquisitionTime": ["114720.725000", "114721.335000", "114721.945000", "114722.555000", "114723.165000", "114723.775000", "114724.385000", "114724.995000", "114725.605000", "114726.215000", "114726.825000", "114727.435000", "114728.045000", "114728.655000", "114729.265000", "114729.875000", "114730.485000", "114731.095000", "114731.705000", "114732.315000", "114732.925000", "114733.535000", "114734.145000", "114734.755000", "114735.365000", "114735.975000", "114736.585000", "114737.195000", "114737.805000", "114738.415000", "114739.025000", "114739.635000", "114740.245000", "114740.855000", "114741.465000", "114742.075000", "114742.685000", "114743.295000", "114743.905000", "114744.515000", "114745.125000", "114745.735000", "114746.345000", "114746.955000", "114747.565000", "114748.175000", "114748.785000", "114749.395000", "114750.005000", "114750.615000", "114751.225000", "114751.835000", "114752.445000", "114753.055000", "114753.665000", "114754.275000", "114754.885000", "114755.495000", "114756.105000", "114756.715000", "114757.325000", "114757.935000", "114758.545000", "114759.155000", "114759.765000", "114800.375000", "114800.985000", "114801.595000", "114802.205000", "114802.815000", "114803.425000", "114804.035000", "114804.645000", "114805.255000", "114805.865000", "114806.475000", "114807.085000", "114807.695000", "114808.305000", "114808.915000", "114809.525000", "114810.135000", "114810.745000", "114811.355000", "114811.965000", "114812.575000", "114813.185000", "114813.795000", "114814.405000", "114815.015000", "114815.625000", "114816.235000", "114816.845000", "114817.455000", "114818.065000", "114818.675000", "114819.285000", "114819.895000", "114820.505000", "114821.115000", "114821.725000", "114822.335000", "114822.945000", "114823.555000", "114824.165000", "114824.775000", "114825.385000", "114825.995000", "114826.605000", "114827.215000", "114827.825000", "114828.435000", "114829.045000", "114829.655000", "114830.265000", "114830.875000", "114831.485000", "114832.095000", "114832.705000", "114833.315000", "114833.925000", "114834.535000", "114835.145000", "114835.755000", "114836.365000", "114836.975000", "114837.585000", "114838.195000", "114838.805000", "114839.415000", "114840.025000", "114840.635000", "114841.245000", "114841.855000", "114842.465000", "114843.075000", "114843.685000", "114844.295000", "114844.905000", "114845.515000", "114846.125000", "114846.735000", "114847.345000", "114847.955000", "114848.565000", "114849.175000", "114849.785000", "114850.395000", "114851.005000", "114851.615000", "114852.225000", "114852.835000", "114853.445000", "114854.055000", "114854.665000", "114855.275000", "114855.885000", "114856.495000", "114857.105000", "114857.715000", "114858.325000", "114858.935000", "114859.545000", "114900.155000", "114900.765000", "114901.375000", "114901.985000", "114902.595000", "114903.205000", "114903.815000", "114904.425000", "114905.035000", "114905.645000", "114906.255000", "114906.865000", "114907.475000", "114908.085000", "114908.695000", "114909.305000", "114909.915000", "114910.525000", "114911.135000", "114911.745000", "114912.355000", "114912.965000", "114913.575000", "114914.185000", "114914.795000", "114915.405000", "114916.015000", "114916.625000", "114917.235000", "114917.845000", "114918.455000", "114919.065000", "114919.675000", "114920.285000", "114920.895000", "114921.505000", "114922.115000", "114922.725000", "114923.335000", "114923.945000", "114924.555000", "114925.165000", "114925.775000", "114926.385000", "114926.995000", "114927.605000", "114928.215000", "114928.825000", "114929.435000", "114930.045000", "114930.655000", "114931.265000", "114931.875000", "114932.485000", "114933.095000", "114933.705000", "114934.315000", "114934.925000", "114935.535000", "114936.145000", "114936.755000", "114937.365000", "114937.975000", "114938.585000", "114939.195000", "114939.805000", "114940.415000", "114941.025000", "114941.635000", "114942.245000", "114942.855000", "114943.465000", "114944.075000", "114944.685000", "114945.295000", "114945.905000", "114946.515000", "114947.125000", "114947.735000", "114948.345000", "114948.955000", "114949.565000", "114950.175000", "114950.785000", "114951.395000", "114952.005000", "114952.615000", "114953.225000", "114953.835000", "114954.445000", "114955.055000", "114955.665000", "114956.275000", "114956.885000", "114957.495000", "114958.105000", "114958.715000", "114959.325000", "114959.935000", "115000.545000", "115001.155000", "115001.765000", "115002.375000", "115002.985000", "115003.595000", "115004.205000", "115004.815000", "115005.425000", "115006.035000", "115006.645000", "115007.255000", "115007.865000", "115008.475000", "115009.085000", "115009.695000", "115010.305000", "115010.915000", "115011.525000", "115012.135000", "115012.745000", "115013.355000", "115013.965000", "115014.575000", "115015.185000", "115015.795000", "115016.405000", "115017.015000", "115017.625000", "115018.235000", "115018.845000", "115019.455000", "115020.065000", "115020.675000", "115021.285000", "115021.895000", "115022.505000", "115023.115000", "115023.725000", "115024.335000", "115024.945000", "115025.555000", "115026.165000", "115026.775000", "115027.385000", "115027.995000", "115028.605000", "115029.215000", "115029.825000", "115030.435000", "115031.045000", "115031.655000", "115032.265000", "115032.875000", "115033.485000", "115034.095000", "115034.705000", "115035.315000", "115035.925000", "115036.535000", "115037.145000", "115037.755000", "115038.365000", "115038.975000", "115039.585000", "115040.195000", "115040.805000", "115041.415000", "115042.025000", "115042.635000", "115043.245000", "115043.855000", "115044.465000", "115045.075000", "115045.685000", "115046.295000", "115046.905000", "115047.515000", "115048.125000", "115048.735000", "115049.345000", "115049.955000", "115050.565000", "115051.175000", "115051.785000", "115052.395000", "115053.005000", "115053.615000", "115054.225000", "115054.835000", "115055.445000", "115056.055000", "115056.665000", "115057.275000", "115057.885000", "115058.495000", "115059.105000", "115059.715000", "115100.325000", "115100.935000", "115101.545000", "115102.155000", "115102.765000", "115103.375000", "115103.985000", "115104.595000", "115105.205000", "115105.815000", "115106.425000", "115107.035000", "115107.645000", "115108.255000", "115108.865000", "115109.475000", "115110.085000", "115110.695000", "115111.305000", "115111.915000", "115112.525000", "115113.135000", "115113.745000", "115114.355000", "115114.965000", "115115.575000", "115116.185000", "115116.795000", "115117.405000", "115118.015000", "115118.625000", "115119.235000", "115119.845000", "115120.455000", "115121.065000", "115121.675000", "115122.285000", "115122.895000", "115123.505000", "115124.115000", "115124.725000", "115125.335000", "115125.945000", "115126.555000", "115127.165000", "115127.775000", "115128.385000", "115128.995000", "115129.605000", "115130.215000", "115130.825000", "115131.435000", "115132.045000", "115132.655000", "115133.265000", "115133.875000", "115134.485000", "115135.095000", "115135.705000", "115136.315000", "115136.925000", "115137.535000", "115138.145000", "115138.755000", "115139.365000", "115139.975000", "115140.585000", "115141.195000", "115141.805000", "115142.415000", "115143.025000", "115143.635000", "115144.245000", "115144.855000", "115145.465000", "115146.075000", "115146.685000", "115147.295000", "115147.905000", "115148.515000", "115149.125000", "115149.735000", "115150.345000", "115150.955000", "115151.565000", "115152.175000", "115152.785000", "115153.395000", "115154.005000", "115154.615000", "115155.225000", "115155.835000", "115156.445000", "115157.055000", "115157.665000", "115158.275000", "115158.885000", "115159.495000", "115200.105000", "115200.715000", "115201.325000", "115201.935000", "115202.545000", "115203.155000", "115203.765000", "115204.375000", "115204.985000", "115205.595000", "115206.205000", "115206.815000", "115207.425000", "115208.035000", "115208.645000", "115209.255000", "115209.865000", "115210.475000", "115211.085000", "115211.695000", "115212.305000", "115212.915000", "115213.525000", "115214.135000", "115214.745000", "115215.355000", "115215.965000", "115216.575000", "115217.185000", "115217.795000", "115218.405000", "115219.015000", "115219.625000", "115220.235000", "115220.845000", "115221.455000", "115222.065000", "115222.675000", "115223.285000", "115223.895000", "115224.505000", "115225.115000", "115225.725000", "115226.335000", "115226.945000", "115227.555000", "115228.165000", "115228.775000", "115229.385000", "115229.995000", "115230.605000", "115231.215000"], "ContentTime": ["114744.718000", "114744.722000", "114744.724000", "114744.726000", "114744.729000", "114744.731000", "114744.733000", "114744.736000", "114744.738000", "114744.741000", "114744.743000", "114744.745000", "114744.748000", "114744.750000", "114744.753000", "114744.755000", "114744.757000", "114744.764000", "114744.766000", "114744.768000", "114744.771000", "114744.773000", "114744.776000", "114744.778000", "114744.780000", "114744.787000", "114744.790000", "114744.792000", "114744.794000", "114744.797000", "114744.799000", "114744.802000", "114744.804000", "114744.806000", "114744.809000", "114744.811000", "114744.813000", "114744.816000", "114804.714000", "114804.717000", "114804.719000", "114804.722000", "114804.724000", "114804.726000", "114804.729000", "114804.731000", "114804.733000", "114804.736000", "114804.738000", "114804.741000", "114804.743000", "114804.745000", "114804.748000", "114804.750000", "114804.752000", "114804.755000", "114804.757000", "114804.760000", "114804.762000", "114804.764000", "114804.767000", "114804.769000", "114804.771000", "114804.774000", "114804.776000", "114804.779000", "114804.781000", "114804.783000", "114804.786000", "114804.788000", "114804.790000", "114824.714000", "114824.717000", "114824.719000", "114824.722000", "114824.724000", "114824.727000", "114824.729000", "114824.732000", "114824.734000", "114824.736000", "114824.739000", "114824.741000", "114824.744000", "114824.746000", "114824.748000", "114824.755000", "114824.758000", "114824.760000", "114824.762000", "114824.765000", "114824.767000", "114824.769000", "114824.772000", "114824.774000", "114824.777000", "114824.779000", "114824.781000", "114824.784000", "114824.786000", "114824.789000", "114824.791000", "114824.794000", "114824.796000", "114844.714000", "114844.717000", "114844.720000", "114844.722000", "114844.724000", "114844.727000", "114844.732000", "114844.735000", "114844.737000", "114844.740000", "114844.742000", "114844.745000", "114844.747000", "114844.749000", "114844.752000", "114844.754000", "114844.756000", "114844.759000", "114844.761000", "114844.764000", "114844.766000", "114844.768000", "114844.771000", "114844.773000", "114844.775000", "114844.778000", "114844.780000", "114844.783000", "114844.785000", "114844.787000", "114844.790000", "114844.792000", "114904.714000", "114904.717000", "114904.719000", "114904.721000", "114904.733000", "114904.735000", "114904.737000", "114904.740000", "114904.742000", "114904.745000", "114904.747000", "114904.750000", "114904.752000", "114904.755000", "114904.757000", "114904.759000", "114904.762000", "114904.764000", "114904.767000", "114904.769000", "114904.772000", "114904.774000", "114904.777000", "114904.779000", "114904.781000", "114904.784000", "114904.786000", "114904.789000", "114904.791000", "114904.793000", "114904.796000", "114904.798000", "114904.801000", "114924.714000", "114924.717000", "114924.719000", "114924.722000", "114924.724000", "114924.727000", "114924.729000", "114924.732000", "114924.734000", "114924.737000", "114924.739000", "114924.741000", "114924.744000", "114924.746000", "114924.749000", "114924.751000", "114924.753000", "114924.756000", "114924.758000", "114924.761000", "114924.763000", "114924.766000", "114924.768000", "114924.770000", "114924.773000", "114924.776000", "114924.778000", "114924.781000", "114924.783000", "114924.786000", "114924.788000", "114924.790000", "114924.793000", "114944.714000", "114944.717000", "114944.719000", "114944.722000", "114944.724000", "114944.727000", "114944.729000", "114944.732000", "114944.734000", "114944.737000", "114944.739000", "114944.742000", "114944.744000", "114944.746000", "114944.749000", "114944.751000", "114944.754000", "114944.756000", "114944.759000", "114944.761000", "114944.764000", "114944.766000", "114944.768000", "114944.771000", "114944.773000", "114944.776000", "114944.778000", "114944.781000", "114944.783000", "114944.785000", "114944.788000", "114944.790000", "114944.793000", "115004.714000", "115004.717000", "115004.719000", "115004.722000", "115004.724000", "115004.726000", "115004.729000", "115004.731000", "115004.733000", "115004.736000", "115004.738000", "115004.755000", "115004.757000", "115004.760000", "115004.762000", "115004.764000", "115004.767000", "115004.769000", "115004.772000", "115004.774000", "115004.777000", "115004.779000", "115004.781000", "115004.784000", "115004.786000", "115004.788000", "115004.791000", "115004.793000", "115004.795000", "115004.798000", "115004.800000", "115004.803000", "115024.714000", "115024.717000", "115024.719000", "115024.722000", "115024.725000", "115024.728000", "115024.730000", "115024.733000", "115024.735000", "115024.738000", "115024.740000", "115024.743000", "115024.745000", "115024.748000", "115024.750000", "115024.753000", "115024.755000", "115024.758000", "115024.760000", "115024.762000", "115024.765000", "115024.767000", "115024.770000", "115024.772000", "115024.774000", "115024.777000", "115024.780000", "115024.782000", "115024.784000", "115024.787000", "115024.789000", "115024.792000", "115024.794000", "115044.714000", "115044.717000", "115044.719000", "115044.722000", "115044.724000", "115044.727000", "115044.729000", "115044.732000", "115044.734000", "115044.737000", "115044.739000", "115044.741000", "115044.744000", "115044.746000", "115044.749000", "115044.751000", "115044.754000", "115044.756000", "115044.759000", "115044.761000", "115044.764000", "115044.766000", "115044.769000", "115044.771000", "115044.773000", "115044.776000", "115044.778000", "115044.781000", "115044.783000", "115044.786000", "115044.788000", "115044.790000", "115044.793000", "115104.715000", "115104.717000", "115104.720000", "115104.722000", "115104.725000", "115104.727000", "115104.730000", "115104.732000", "115104.735000", "115104.737000", "115104.740000", "115104.742000", "115104.744000", "115104.747000", "115104.749000", "115104.751000", "115104.754000", "115104.756000", "115104.759000", "115104.761000", "115104.763000", "115104.766000", "115104.768000", "115104.771000", "115104.773000", "115104.775000", "115104.778000", "115104.780000", "115104.782000", "115104.785000", "115104.787000", "115104.790000", "115104.792000", "115124.714000", "115124.717000", "115124.719000", "115124.722000", "115124.724000", "115124.726000", "115124.729000", "115124.731000", "115124.734000", "115124.736000", "115124.738000", "115124.741000", "115124.743000", "115124.746000", "115124.748000", "115124.750000", "115124.753000", "115124.755000", "115124.757000", "115124.760000", "115124.762000", "115124.765000", "115124.767000", "115124.769000", "115124.772000", "115124.774000", "115124.777000", "115124.779000", "115124.782000", "115124.784000", "115124.787000", "115124.789000", "115124.792000", "115144.714000", "115144.717000", "115144.720000", "115144.722000", "115144.724000", "115144.727000", "115144.729000", "115144.732000", "115144.734000", "115144.737000", "115144.739000", "115144.742000", "115144.744000", "115144.747000", "115144.749000", "115144.751000", "115144.754000", "115144.756000", "115144.759000", "115144.761000", "115144.764000", "115144.766000", "115144.769000", "115144.771000", "115144.773000", "115144.776000", "115144.778000", "115144.781000", "115144.784000", "115144.786000", "115144.789000", "115144.792000", "115204.714000", "115204.717000", "115204.719000", "115204.722000", "115204.724000", "115204.726000", "115204.729000", "115204.732000", "115204.734000", "115204.737000", "115204.739000", "115204.742000", "115204.744000", "115204.747000", "115204.749000", "115204.752000", "115204.754000", "115204.757000", "115204.759000", "115204.762000", "115204.765000", "115204.767000", "115204.770000", "115204.772000", "115204.775000", "115204.777000", "115204.780000", "115204.782000", "115204.784000", "115204.787000", "115204.789000", "115204.792000", "115204.794000", "115224.714000", "115224.717000", "115224.719000", "115224.722000", "115224.725000", "115224.727000", "115224.730000", "115224.732000", "115224.735000", "115224.737000", "115224.739000", "115224.742000", "115224.745000", "115224.747000", "115224.750000", "115224.752000", "115224.755000", "115224.757000", "115224.760000", "115224.762000", "115224.765000", "115224.767000", "115224.769000", "115224.772000", "115224.774000", "115224.777000", "115224.779000", "115224.782000", "115224.784000", "115224.787000", "115224.789000", "115224.792000", "115224.794000", "115232.341000", "115232.344000", "115232.346000", "115232.349000", "115232.351000", "115232.354000", "115232.356000", "115232.358000", "115232.361000", "115232.363000", "115232.366000", "115232.368000", "115232.370000"], "InstanceCreationTime": ["114744.718000", "114744.722000", "114744.724000", "114744.726000", "114744.729000", "114744.731000", "114744.733000", "114744.736000", "114744.738000", "114744.741000", "114744.743000", "114744.745000", "114744.748000", "114744.750000", "114744.753000", "114744.755000", "114744.757000", "114744.764000", "114744.766000", "114744.768000", "114744.771000", "114744.773000", "114744.776000", "114744.778000", "114744.780000", "114744.787000", "114744.790000", "114744.792000", "114744.794000", "114744.797000", "114744.799000", "114744.802000", "114744.804000", "114744.806000", "114744.809000", "114744.811000", "114744.813000", "114744.816000", "114804.714000", "114804.717000", "114804.719000", "114804.722000", "114804.724000", "114804.726000", "114804.729000", "114804.731000", "114804.733000", "114804.736000", "114804.738000", "114804.741000", "114804.743000", "114804.745000", "114804.748000", "114804.750000", "114804.752000", "114804.755000", "114804.757000", "114804.760000", "114804.762000", "114804.764000", "114804.767000", "114804.769000", "114804.771000", "114804.774000", "114804.776000", "114804.779000", "114804.781000", "114804.783000", "114804.786000", "114804.788000", "114804.790000", "114824.714000", "114824.717000", "114824.719000", "114824.722000", "114824.724000", "114824.727000", "114824.729000", "114824.732000", "114824.734000", "114824.736000", "114824.739000", "114824.741000", "114824.744000", "114824.746000", "114824.748000", "114824.755000", "114824.758000", "114824.760000", "114824.762000", "114824.765000", "114824.767000", "114824.769000", "114824.772000", "114824.774000", "114824.777000", "114824.779000", "114824.781000", "114824.784000", "114824.786000", "114824.789000", "114824.791000", "114824.794000", "114824.796000", "114844.714000", "114844.717000", "114844.720000", "114844.722000", "114844.724000", "114844.727000", "114844.732000", "114844.735000", "114844.737000", "114844.740000", "114844.742000", "114844.745000", "114844.747000", "114844.749000", "114844.752000", "114844.754000", "114844.756000", "114844.759000", "114844.761000", "114844.764000", "114844.766000", "114844.768000", "114844.771000", "114844.773000", "114844.775000", "114844.778000", "114844.780000", "114844.783000", "114844.785000", "114844.787000", "114844.790000", "114844.792000", "114904.714000", "114904.717000", "114904.719000", "114904.721000", "114904.733000", "114904.735000", "114904.737000", "114904.740000", "114904.742000", "114904.745000", "114904.747000", "114904.750000", "114904.752000", "114904.755000", "114904.757000", "114904.759000", "114904.762000", "114904.764000", "114904.767000", "114904.769000", "114904.772000", "114904.774000", "114904.777000", "114904.779000", "114904.781000", "114904.784000", "114904.786000", "114904.789000", "114904.791000", "114904.793000", "114904.796000", "114904.798000", "114904.801000", "114924.714000", "114924.717000", "114924.719000", "114924.722000", "114924.724000", "114924.727000", "114924.729000", "114924.732000", "114924.734000", "114924.737000", "114924.739000", "114924.741000", "114924.744000", "114924.746000", "114924.749000", "114924.751000", "114924.753000", "114924.756000", "114924.758000", "114924.761000", "114924.763000", "114924.766000", "114924.768000", "114924.770000", "114924.773000", "114924.776000", "114924.778000", "114924.781000", "114924.783000", "114924.786000", "114924.788000", "114924.790000", "114924.793000", "114944.714000", "114944.717000", "114944.719000", "114944.722000", "114944.724000", "114944.727000", "114944.729000", "114944.732000", "114944.734000", "114944.737000", "114944.739000", "114944.742000", "114944.744000", "114944.746000", "114944.749000", "114944.751000", "114944.754000", "114944.756000", "114944.759000", "114944.761000", "114944.764000", "114944.766000", "114944.768000", "114944.771000", "114944.773000", "114944.776000", "114944.778000", "114944.781000", "114944.783000", "114944.785000", "114944.788000", "114944.790000", "114944.793000", "115004.714000", "115004.717000", "115004.719000", "115004.722000", "115004.724000", "115004.726000", "115004.729000", "115004.731000", "115004.733000", "115004.736000", "115004.738000", "115004.755000", "115004.757000", "115004.760000", "115004.762000", "115004.764000", "115004.767000", "115004.769000", "115004.772000", "115004.774000", "115004.777000", "115004.779000", "115004.781000", "115004.784000", "115004.786000", "115004.788000", "115004.791000", "115004.793000", "115004.795000", "115004.798000", "115004.800000", "115004.803000", "115024.714000", "115024.717000", "115024.719000", "115024.722000", "115024.725000", "115024.728000", "115024.730000", "115024.733000", "115024.735000", "115024.738000", "115024.740000", "115024.743000", "115024.745000", "115024.748000", "115024.750000", "115024.753000", "115024.755000", "115024.758000", "115024.760000", "115024.762000", "115024.765000", "115024.767000", "115024.770000", "115024.772000", "115024.774000", "115024.777000", "115024.780000", "115024.782000", "115024.784000", "115024.787000", "115024.789000", "115024.792000", "115024.794000", "115044.714000", "115044.717000", "115044.719000", "115044.722000", "115044.724000", "115044.727000", "115044.729000", "115044.732000", "115044.734000", "115044.737000", "115044.739000", "115044.741000", "115044.744000", "115044.746000", "115044.749000", "115044.751000", "115044.754000", "115044.756000", "115044.759000", "1