{"AcquisitionMatrixPE": 64, "AcquisitionNumber": 1, "AcquisitionTime": "12:01:0.712500", "BandwidthPerPixelPhaseEncode": 28.935, "BaseResolution": 64, "BodyPartExamined": "BRAIN", "CoilCombinationMethod": "Sum of Squares", "ConsistencyInfo": "N4_VE11E_LATEST_20181129", "ConversionSoftware": "dcm2niix", "ConversionSoftwareVersion": "v1.0.20230411", "DerivedVendorReportedEchoSpacing": 0.000540003, "DeviceSerialNumber": "166182", "DwellTime": 3.4e-06, "EchoTime": 0.032, "EchoTrainLength": 64, "EffectiveEchoSpacing": 0.000540003, "FlipAngle": 40, "HeudiconvVersion": "0.13.1", "ImageOrientationPatientDICOM": [0.993706, -0.0819666, 0.0763563, 0.0834438, 0.996378, -0.0163557], "ImageOrientationText": "Tra>Sag(4.3)>Cor(-1.3)", "ImageType": ["ORIGINAL", "PRIMARY", "M", "ND", "NORM", "MOSAIC"], "ImagingFrequency": 123.256271, "InPlanePhaseEncodingDirectionDICOM": "COL", "InstitutionAddress": "PEARSE STREET .,City,District,IE,D2", "InstitutionName": "TCIN", "InstitutionalDepartmentName": "MRI", "MRAcquisitionType": "2D", "MagneticFieldStrength": 3, "Manufacturer": "Siemens", "ManufacturersModelName": "Prisma", "Modality": "MR", "MultibandAccelerationFactor": 4, "NonlinearGradientCorrection": false, "PartialFourier": 1, "PatientPosition": "HFS", "PercentPhaseFOV": 100, "PercentSampling": 100, "PhaseEncodingDirection": "j-", "PhaseEncodingSteps": 64, "PhaseResolution": 1, "PixelBandwidth": 2300, "ProcedureStepDescription": "Rhodri^Head BOLD", "ProtocolName": "cmrr_mbep2d_Pictures_AP_RDS", "PulseSequenceDetails": "%SiemensSeq%\\ep2d_bold", "ReceiveCoilActiveElements": "HC2,4,6,7;SC", "ReceiveCoilName": "SpecialPurpose_4", "ReconMatrixPE": 64, "RefLinesPE": 12, "RepetitionTime": 0.61, "SAR": 0.274984, "ScanOptions": "FS", "ScanningSequence": "EP", "SequenceName": "*epfid2d1_64", "SequenceVariant": "SK", "SeriesDescription": "cmrr_mbep2d_Pictures_AP_RDS", "SeriesNumber": 8, "ShimSetting": [-3720, -7560, 3989, 649, 128, 577, 276, 13], "SliceThickness": 3, "SliceTiming": [0.2625, 0, 0.3275, 0.065, 0.3925, 0.13, 0.46, 0.1975, 0.525, 0.2625, 0, 0.3275, 0.065, 0.3925, 0.13, 0.46, 0.1975, 0.525, 0.2625, 0, 0.3275, 0.065, 0.3925, 0.13, 0.46, 0.1975, 0.525, 0.2625, 0, 0.3275, 0.065, 0.3925, 0.13, 0.46, 0.1975, 0.525], "SoftwareVersions": "syngo MR E11", "SpacingBetweenSlices": 3.3, "StationName": "AWP166182", "TaskName": "pictures", "TotalReadoutTime": 0.0340202, "TxRefAmp": 240.623, "dcmmeta_affine": [[-2.9811172485351562, 0.25033149123191833, 0.24663913249969482, 83.40889739990234], [0.24589985609054565, 2.9891347885131836, -0.07465992122888565, -105.7463150024414], [0.22906889021396637, 0.04906710982322693, 3.2899231910705566, -109.77088928222656], [0.0, 0.0, 0.0, 1.0]], "dcmmeta_reorient_transform": [[0.0, -1.0, 0.0, 63.0], [1.0, 0.0, 0.0, 0.0], [0.0, 0.0, 1.0, 0.0], [0.0, 0.0, 0.0, 1.0]], "dcmmeta_shape": [64, 64, 36, 510], "dcmmeta_slice_dim": 2, "dcmmeta_version": 0.6, "global": {"const": {"AcquisitionMatrix": [64, 0, 0, 64], "AngioFlag": "N", "BitsAllocated": 16, "BitsStored": 12, "BodyPartExamined": "BRAIN", "Columns": 384, "EchoNumbers": 1, "EchoTime": 32.0, "EchoTrainLength": 64, "FlipAngle": 40.0, "HighBit": 11, "ImageOrientationPatient": [0.99370578641262, -0.0819666167288, 0.0763562950392, 0.08344382839532, 0.99637825069824, -0.016355703539], "ImagePositionPatient": [-616.21159464854, -521.48675904911, -135.47994214452], "ImageType": ["ORIGINAL", "PRIMARY", "M", "ND", "NORM", "MOSAIC"], "ImagedNucleus": "1H", "ImagingFrequency": 123.256271, "InPlanePhaseEncodingDirection": "COL", "MRAcquisitionType": "2D", "MagneticFieldStrength": 3.0, "Manufacturer": "SIEMENS", "ManufacturerModelName": "Prisma", "Modality": "MR", "NumberOfAverages": 1.0, "NumberOfPhaseEncodingSteps": 64, "PercentPhaseFieldOfView": 100.0, "PercentSampling": 100.0, "PerformedProcedureStepStartTime": "114639.799000", "PhotometricInterpretation": "MONOCHROME2", "PixelBandwidth": 2300.0, "PixelRepresentation": 0, "PixelSpacing": [3.0, 3.0], "ProtocolName": "cmrr_mbep2d_Pictures_AP_RDS", "RepetitionTime": 610.0, "Rows": 384, "SAR": 0.27498437791322, "SamplesPerPixel": 1, "ScanOptions": "FS", "ScanningSequence": "EP", "SequenceName": "*epfid2d1_64", "SequenceVariant": "SK", "SeriesDescription": "cmrr_mbep2d_Pictures_AP_RDS", "SeriesNumber": 8, "SeriesTime": "120114.634000", "SliceLocation": -100.80935828623, "SliceThickness": 3.0, "SmallestImagePixelValue": 0, "SoftwareVersions": "syngo MR E11", "SpacingBetweenSlices": 3.2999999479398, "SpecificCharacterSet": "ISO_IR 100", "StudyID": "1", "StudyTime": "114639.710000", "TransmitCoilName": "Body", "VariableFlipAngleFlag": "N", "WindowCenterWidthExplanation": "Algo1"}, "slices": {}}, "time": {"samples": {"AcquisitionNumber": [1, 2, 3, 4, 5, 6, 7, 8, 9, 10, 11, 12, 13, 14, 15, 16, 17, 18, 19, 20, 21, 22, 23, 24, 25, 26, 27, 28, 29, 30, 31, 32, 33, 34, 35, 36, 37, 38, 39, 40, 41, 42, 43, 44, 45, 46, 47, 48, 49, 50, 51, 52, 53, 54, 55, 56, 57, 58, 59, 60, 61, 62, 63, 64, 65, 66, 67, 68, 69, 70, 71, 72, 73, 74, 75, 76, 77, 78, 79, 80, 81, 82, 83, 84, 85, 86, 87, 88, 89, 90, 91, 92, 93, 94, 95, 96, 97, 98, 99, 100, 101, 102, 103, 104, 105, 106, 107, 108, 109, 110, 111, 112, 113, 114, 115, 116, 117, 118, 119, 120, 121, 122, 123, 124, 125, 126, 127, 128, 129, 130, 131, 132, 133, 134, 135, 136, 137, 138, 139, 140, 141, 142, 143, 144, 145, 146, 147, 148, 149, 150, 151, 152, 153, 154, 155, 156, 157, 158, 159, 160, 161, 162, 163, 164, 165, 166, 167, 168, 169, 170, 171, 172, 173, 174, 175, 176, 177, 178, 179, 180, 181, 182, 183, 184, 185, 186, 187, 188, 189, 190, 191, 192, 193, 194, 195, 196, 197, 198, 199, 200, 201, 202, 203, 204, 205, 206, 207, 208, 209, 210, 211, 212, 213, 214, 215, 216, 217, 218, 219, 220, 221, 222, 223, 224, 225, 226, 227, 228, 229, 230, 231, 232, 233, 234, 235, 236, 237, 238, 239, 240, 241, 242, 243, 244, 245, 246, 247, 248, 249, 250, 251, 252, 253, 254, 255, 256, 257, 258, 259, 260, 261, 262, 263, 264, 265, 266, 267, 268, 269, 270, 271, 272, 273, 274, 275, 276, 277, 278, 279, 280, 281, 282, 283, 284, 285, 286, 287, 288, 289, 290, 291, 292, 293, 294, 295, 296, 297, 298, 299, 300, 301, 302, 303, 304, 305, 306, 307, 308, 309, 310, 311, 312, 313, 314, 315, 316, 317, 318, 319, 320, 321, 322, 323, 324, 325, 326, 327, 328, 329, 330, 331, 332, 333, 334, 335, 336, 337, 338, 339, 340, 341, 342, 343, 344, 345, 346, 347, 348, 349, 350, 351, 352, 353, 354, 355, 356, 357, 358, 359, 360, 361, 362, 363, 364, 365, 366, 367, 368, 369, 370, 371, 372, 373, 374, 375, 376, 377, 378, 379, 380, 381, 382, 383, 384, 385, 386, 387, 388, 389, 390, 391, 392, 393, 394, 395, 396, 397, 398, 399, 400, 401, 402, 403, 404, 405, 406, 407, 408, 409, 410, 411, 412, 413, 414, 415, 416, 417, 418, 419, 420, 421, 422, 423, 424, 425, 426, 427, 428, 429, 430, 431, 432, 433, 434, 435, 436, 437, 438, 439, 440, 441, 442, 443, 444, 445, 446, 447, 448, 449, 450, 451, 452, 453, 454, 455, 456, 457, 458, 459, 460, 461, 462, 463, 464, 465, 466, 467, 468, 469, 470, 471, 472, 473, 474, 475, 476, 477, 478, 479, 480, 481, 482, 483, 484, 485, 486, 487, 488, 489, 490, 491, 492, 493, 494, 495, 496, 497, 498, 499, 500, 501, 502, 503, 504, 505, 506, 507, 508, 509, 510], "AcquisitionTime": ["120100.712500", "120101.322500", "120101.932500", "120102.542500", "120103.152500", "120103.762500", "120104.372500", "120104.982500", "120105.592500", "120106.202500", "120106.812500", "120107.422500", "120108.032500", "120108.642500", "120109.252500", "120109.862500", "120110.472500", "120111.082500", "120111.692500", "120112.302500", "120112.912500", "120113.522500", "120114.132500", "120114.742500", "120115.352500", "120115.962500", "120116.572500", "120117.182500", "120117.792500", "120118.402500", "120119.012500", "120119.622500", "120120.232500", "120120.842500", "120121.452500", "120122.062500", "120122.672500", "120123.282500", "120123.892500", "120124.502500", "120125.112500", "120125.722500", "120126.332500", "120126.942500", "120127.552500", "120128.162500", "120128.772500", "120129.382500", "120129.992500", "120130.602500", "120131.212500", "120131.822500", "120132.432500", "120133.042500", "120133.652500", "120134.262500", "120134.872500", "120135.482500", "120136.092500", "120136.702500", "120137.312500", "120137.922500", "120138.532500", "120139.142500", "120139.752500", "120140.362500", "120140.972500", "120141.582500", "120142.192500", "120142.802500", "120143.412500", "120144.022500", "120144.632500", "120145.242500", "120145.852500", "120146.462500", "120147.072500", "120147.682500", "120148.292500", "120148.902500", "120149.512500", "120150.122500", "120150.732500", "120151.342500", "120151.952500", "120152.562500", "120153.172500", "120153.782500", "120154.392500", "120155.002500", "120155.612500", "120156.222500", "120156.832500", "120157.442500", "120158.052500", "120158.662500", "120159.272500", "120159.882500", "120200.492500", "120201.102500", "120201.712500", "120202.322500", "120202.932500", "120203.542500", "120204.152500", "120204.762500", "120205.372500", "120205.982500", "120206.592500", "120207.202500", "120207.812500", "120208.422500", "120209.032500", "120209.642500", "120210.252500", "120210.862500", "120211.472500", "120212.082500", "120212.692500", "120213.302500", "120213.912500", "120214.522500", "120215.132500", "120215.742500", "120216.352500", "120216.962500", "120217.572500", "120218.182500", "120218.792500", "120219.402500", "120220.012500", "120220.622500", "120221.232500", "120221.842500", "120222.452500", "120223.062500", "120223.672500", "120224.282500", "120224.892500", "120225.502500", "120226.112500", "120226.722500", "120227.332500", "120227.942500", "120228.552500", "120229.162500", "120229.772500", "120230.382500", "120230.992500", "120231.602500", "120232.212500", "120232.822500", "120233.432500", "120234.042500", "120234.652500", "120235.262500", "120235.872500", "120236.482500", "120237.092500", "120237.702500", "120238.312500", "120238.922500", "120239.532500", "120240.142500", "120240.752500", "120241.362500", "120241.972500", "120242.582500", "120243.192500", "120243.802500", "120244.412500", "120245.022500", "120245.632500", "120246.242500", "120246.852500", "120247.462500", "120248.072500", "120248.682500", "120249.292500", "120249.902500", "120250.512500", "120251.122500", "120251.732500", "120252.342500", "120252.952500", "120253.562500", "120254.172500", "120254.782500", "120255.392500", "120256.002500", "120256.612500", "120257.222500", "120257.832500", "120258.442500", "120259.052500", "120259.662500", "120300.272500", "120300.882500", "120301.492500", "120302.102500", "120302.712500", "120303.322500", "120303.932500", "120304.542500", "120305.152500", "120305.762500", "120306.372500", "120306.982500", "120307.592500", "120308.202500", "120308.812500", "120309.422500", "120310.032500", "120310.642500", "120311.252500", "120311.862500", "120312.472500", "120313.082500", "120313.692500", "120314.302500", "120314.912500", "120315.522500", "120316.132500", "120316.742500", "120317.352500", "120317.962500", "120318.572500", "120319.182500", "120319.792500", "120320.402500", "120321.012500", "120321.622500", "120322.232500", "120322.842500", "120323.452500", "120324.062500", "120324.672500", "120325.282500", "120325.892500", "120326.502500", "120327.112500", "120327.722500", "120328.332500", "120328.942500", "120329.552500", "120330.162500", "120330.772500", "120331.382500", "120331.992500", "120332.602500", "120333.212500", "120333.822500", "120334.432500", "120335.042500", "120335.652500", "120336.262500", "120336.872500", "120337.482500", "120338.092500", "120338.702500", "120339.312500", "120339.922500", "120340.532500", "120341.142500", "120341.752500", "120342.362500", "120342.972500", "120343.582500", "120344.192500", "120344.802500", "120345.412500", "120346.022500", "120346.632500", "120347.242500", "120347.852500", "120348.462500", "120349.072500", "120349.682500", "120350.292500", "120350.902500", "120351.512500", "120352.122500", "120352.732500", "120353.342500", "120353.952500", "120354.562500", "120355.172500", "120355.782500", "120356.392500", "120357.002500", "120357.612500", "120358.222500", "120358.832500", "120359.442500", "120400.052500", "120400.662500", "120401.272500", "120401.882500", "120402.492500", "120403.102500", "120403.712500", "120404.322500", "120404.932500", "120405.542500", "120406.152500", "120406.762500", "120407.372500", "120407.982500", "120408.592500", "120409.202500", "120409.812500", "120410.422500", "120411.032500", "120411.642500", "120412.252500", "120412.862500", "120413.472500", "120414.082500", "120414.692500", "120415.302500", "120415.912500", "120416.522500", "120417.132500", "120417.742500", "120418.352500", "120418.962500", "120419.572500", "120420.182500", "120420.792500", "120421.402500", "120422.012500", "120422.622500", "120423.232500", "120423.842500", "120424.452500", "120425.062500", "120425.672500", "120426.282500", "120426.892500", "120427.502500", "120428.112500", "120428.722500", "120429.332500", "120429.942500", "120430.552500", "120431.162500", "120431.772500", "120432.382500", "120432.992500", "120433.602500", "120434.212500", "120434.822500", "120435.432500", "120436.042500", "120436.652500", "120437.262500", "120437.872500", "120438.482500", "120439.092500", "120439.702500", "120440.312500", "120440.922500", "120441.532500", "120442.142500", "120442.752500", "120443.362500", "120443.972500", "120444.582500", "120445.192500", "120445.802500", "120446.412500", "120447.022500", "120447.632500", "120448.242500", "120448.852500", "120449.462500", "120450.072500", "120450.682500", "120451.292500", "120451.902500", "120452.512500", "120453.122500", "120453.732500", "120454.342500", "120454.952500", "120455.562500", "120456.172500", "120456.782500", "120457.392500", "120458.002500", "120458.612500", "120459.222500", "120459.832500", "120500.442500", "120501.052500", "120501.662500", "120502.272500", "120502.882500", "120503.492500", "120504.102500", "120504.712500", "120505.322500", "120505.932500", "120506.542500", "120507.152500", "120507.762500", "120508.372500", "120508.982500", "120509.592500", "120510.202500", "120510.812500", "120511.422500", "120512.032500", "120512.642500", "120513.252500", "120513.862500", "120514.472500", "120515.082500", "120515.692500", "120516.302500", "120516.912500", "120517.522500", "120518.132500", "120518.742500", "120519.352500", "120519.962500", "120520.572500", "120521.182500", "120521.792500", "120522.402500", "120523.012500", "120523.622500", "120524.232500", "120524.842500", "120525.452500", "120526.062500", "120526.672500", "120527.282500", "120527.892500", "120528.502500", "120529.112500", "120529.722500", "120530.332500", "120530.942500", "120531.552500", "120532.162500", "120532.772500", "120533.382500", "120533.992500", "120534.602500", "120535.212500", "120535.822500", "120536.432500", "120537.042500", "120537.652500", "120538.262500", "120538.872500", "120539.482500", "120540.092500", "120540.702500", "120541.312500", "120541.922500", "120542.532500", "120543.142500", "120543.752500", "120544.362500", "120544.972500", "120545.582500", "120546.192500", "120546.802500", "120547.412500", "120548.022500", "120548.632500", "120549.242500", "120549.852500", "120550.462500", "120551.072500", "120551.682500", "120552.292500", "120552.902500", "120553.512500", "120554.122500", "120554.732500", "120555.342500", "120555.952500", "120556.562500", "120557.172500", "120557.782500", "120558.392500", "120559.002500", "120559.612500", "120600.222500", "120600.832500", "120601.442500", "120602.052500", "120602.662500", "120603.272500", "120603.882500", "120604.492500", "120605.102500", "120605.712500", "120606.322500", "120606.932500", "120607.542500", "120608.152500", "120608.762500", "120609.372500", "120609.982500", "120610.592500", "120611.202500"], "ContentTime": ["120114.638000", "120114.641000", "120114.644000", "120114.646000", "120114.655000", "120114.657000", "120114.660000", "120114.662000", "120114.665000", "120114.667000", "120114.669000", "120114.672000", "120114.674000", "120114.677000", "120114.679000", "120114.682000", "120114.684000", "120114.686000", "120114.689000", "120114.691000", "120114.695000", "120114.698000", "120134.632000", "120134.635000", "120134.638000", "120134.640000", "120134.643000", "120134.645000", "120134.648000", "120134.650000", "120134.653000", "120134.664000", "120134.666000", "120134.669000", "120134.671000", "120134.674000", "120134.676000", "120134.679000", "120134.681000", "120134.684000", "120134.686000", "120134.688000", "120134.691000", "120134.693000", "120134.726000", "120134.729000", "120134.731000", "120134.734000", "120134.736000", "120134.738000", "120134.741000", "120134.743000", "120134.746000", "120134.748000", "120154.632000", "120154.635000", "120154.637000", "120154.648000", "120154.650000", "120154.653000", "120154.655000", "120154.658000", "120154.660000", "120154.663000", "120154.665000", "120154.667000", "120154.670000", "120154.672000", "120154.675000", "120154.677000", "120154.679000", "120154.682000", "120154.684000", "120154.687000", "120154.689000", "120154.692000", "120154.694000", "120154.697000", "120154.699000", "120154.701000", "120154.704000", "120154.706000", "120154.709000", "120154.711000", "120154.713000", "120154.716000", "120154.718000", "120214.632000", "120214.635000", "120214.637000", "120214.640000", "120214.642000", "120214.645000", "120214.647000", "120214.650000", "120214.652000", "120214.654000", "120214.657000", "120214.659000", "120214.662000", "120214.664000", "120214.666000", "120214.669000", "120214.671000", "120214.674000", "120214.676000", "120214.679000", "120214.681000", "120214.684000", "120214.686000", "120214.688000", "120214.691000", "120214.693000", "120214.696000", "120214.698000", "120214.701000", "120214.703000", "120214.706000", "120214.708000", "120214.710000", "120234.632000", "120234.635000", "120234.638000", "120234.640000", "120234.642000", "120234.645000", "120234.647000", "120234.650000", "120234.652000", "120234.654000", "120234.657000", "120234.659000", "120234.662000", "120234.664000", "120234.667000", "120234.669000", "120234.671000", "120234.674000", "120234.676000", "120234.679000", "120234.681000", "120234.683000", "120234.686000", "120234.688000", "120234.691000", "120234.693000", "120234.695000", "120234.698000", "120234.701000", "120234.703000", "120234.706000", "120234.708000", "120234.711000", "120254.642000", "120254.644000", "120254.647000", "120254.649000", "120254.652000", "120254.654000", "120254.656000", "120254.659000", "120254.661000", "120254.663000", "120254.666000", "120254.668000", "120254.671000", "120254.673000", "120254.676000", "120254.678000", "120254.681000", "120254.683000", "120254.686000", "120254.688000", "120254.691000", "120254.693000", "120254.695000", "120254.698000", "120254.700000", "120254.703000", "120254.705000", "120254.707000", "120254.715000", "120254.718000", "120254.720000", "120254.723000", "120314.632000", "120314.635000", "120314.638000", "120314.641000", "120314.644000", "120314.646000", "120314.649000", "120314.651000", "120314.653000", "120314.656000", "120314.658000", "120314.661000", "120314.663000", "120314.666000", "120314.668000", "120314.671000", "120314.673000", "120314.676000", "120314.678000", "120314.680000", "120314.683000", "120314.727000", "120314.730000", "120314.733000", "120314.735000", "120314.738000", "120314.740000", "120314.743000", "120314.745000", "120314.748000", "120314.750000", "120314.753000", "120314.755000", "120334.633000", "120334.636000", "120334.639000", "120334.641000", "120334.643000", "120334.646000", "120334.648000", "120334.651000", "120334.653000", "120334.656000", "120334.658000", "120334.661000", "120334.663000", "120334.666000", "120334.668000", "120334.671000", "120334.673000", "120334.676000", "120334.678000", "120334.680000", "120334.683000", "120334.685000", "120334.688000", "120334.690000", "120334.693000", "120334.695000", "120334.698000", "120334.700000", "120334.710000", "120334.712000", "120334.715000", "120334.717000", "120334.720000", "120354.632000", "120354.635000", "120354.637000", "120354.640000", "120354.642000", "120354.645000", "120354.647000", "120354.650000", "120354.652000", "120354.655000", "120354.657000", "120354.660000", "120354.662000", "120354.665000", "120354.667000", "120354.670000", "120354.672000", "120354.675000", "120354.677000", "120354.680000", "120354.682000", "120354.685000", "120354.687000", "120354.690000", "120354.692000", "120354.694000", "120354.697000", "120354.699000", "120354.702000", "120354.704000", "120354.707000", "120354.709000", "120354.712000", "120414.632000", "120414.635000", "120414.637000", "120414.640000", "120414.642000", "120414.645000", "120414.647000", "120414.650000", "120414.652000", "120414.655000", "120414.657000", "120414.660000", "120414.662000", "120414.665000", "120414.667000", "120414.670000", "120414.672000", "120414.675000", "120414.677000", "120414.680000", "120414.682000", "120414.684000", "120414.687000", "120414.689000", "120414.692000", "120414.694000", "120414.697000", "120414.699000", "120414.702000", "120414.705000", "120414.707000", "120414.710000", "120414.712000", "120434.632000", "120434.635000", "120434.638000", "120434.640000", "120434.643000", "120434.645000", "120434.648000", "120434.651000", "120434.653000", "120434.656000", "120434.658000", "120434.661000", "120434.663000", "120434.666000", "120434.668000", "120434.671000", "120434.673000", "120434.675000", "120434.678000", "120434.681000", "120434.683000", "120434.685000", "120434.688000", "120434.690000", "120434.693000", "120434.695000", "120434.698000", "120434.700000", "120434.703000", "120434.705000", "120434.708000", "120434.710000", "120454.632000", "120454.635000", "120454.637000", "120454.640000", "120454.642000", "120454.645000", "120454.648000", "120454.650000", "120454.653000", "120454.655000", "120454.658000", "120454.660000", "120454.663000", "120454.665000", "120454.668000", "120454.679000", "120454.681000", "120454.684000", "120454.686000", "120454.689000", "120454.691000", "120454.694000", "120454.696000", "120454.699000", "120454.702000", "120454.704000", "120454.707000", "120454.709000", "120454.712000", "120454.714000", "120454.717000", "120454.719000", "120454.722000", "120514.632000", "120514.635000", "120514.638000", "120514.640000", "120514.643000", "120514.645000", "120514.648000", "120514.650000", "120514.653000", "120514.655000", "120514.658000", "120514.660000", "120514.663000", "120514.665000", "120514.668000", "120514.670000", "120514.673000", "120514.675000", "120514.677000", "120514.680000", "120514.682000", "120514.685000", "120514.687000", "120514.690000", "120514.692000", "120514.695000", "120514.697000", "120514.700000", "120514.702000", "120514.708000", "120514.711000", "120514.713000", "120514.716000", "120534.632000", "120534.636000", "120534.638000", "120534.640000", "120534.643000", "120534.646000", "120534.648000", "120534.651000", "120534.653000", "120534.656000", "120534.658000", "120534.666000", "120534.668000", "120534.671000", "120534.674000", "120534.676000", "120534.679000", "120534.681000", "120534.683000", "120534.686000", "120534.688000", "120534.691000", "120534.693000", "120534.696000", "120534.698000", "120534.701000", "120534.703000", "120534.706000", "120534.708000", "120534.711000", "120534.713000", "120534.716000", "120534.718000", "120554.633000", "120554.636000", "120554.639000", "120554.641000", "120554.644000", "120554.646000", "120554.649000", "120554.651000", "120554.653000", "120554.656000", "120554.658000", "120554.661000", "120554.663000", "120554.666000", "120554.668000", "120554.671000", "120554.673000", "120554.676000", "120554.678000", "120554.681000", "120554.683000", "120554.686000", "120554.688000", "120554.691000", "120554.693000", "120554.695000", "120554.698000", "120554.700000", "120554.703000", "120554.705000", "120554.708000", "120554.710000", "120554.713000", "120612.303000", "120612.306000", "120612.308000", "120612.311000", "120612.313000", "120612.316000", "120612.318000", "120612.321000", "120612.323000", "120612.326000", "120612.328000", "120612.339000", "120612.341000", "120612.344000", "120612.346000", "120612.349000", "120612.351000", "120612.354000", "120612.356000", "120612.359000", "120612.361000", "120612.364000", "120612.366000", "120612.369000", "120612.375000", "120612.377000", "120612.380000", "120612.382000", "120612.385000"], "InstanceCreationTime": ["120114.638000", "120114.641000", "120114.644000", "120114.646000", "120114.655000", "120114.657000", "120114.660000", "120114.662000", "120114.665000", "120114.667000", "120114.669000", "120114.672000", "120114.674000", "120114.677000", "120114.679000", "120114.682000", "120114.684000", "120114.686000", "120114.689000", "120114.691000", "120114.695000", "120114.698000", "120134.632000", "120134.635000", "120134.638000", "120134.640000", "120134.643000", "120134.645000", "120134.648000", "120134.650000", "120134.653000", "120134.664000", "120134.666000", "120134.669000", "120134.671000", "120134.674000", "120134.676000", "120134.679000", "120134.681000", "120134.684000", "120134.686000", "120134.688000", "120134.691000", "120134.693000", "120134.726000", "120134.729000", "120134.731000", "120134.734000", "120134.736000", "120134.738000", "120134.741000", "120134.743000", "120134.746000", "120134.748000", "120154.632000", "120154.635000", "120154.637000", "120154.648000", "120154.650000", "120154.653000", "120154.655000", "120154.658000", "120154.660000", "120154.663000", "120154.665000", "120154.667000", "120154.670000", "120154.672000", "120154.675000", "120154.677000", "120154.679000", "120154.682000", "120154.684000", "120154.687000", "120154.689000", "120154.692000", "120154.694000", "120154.697000", "120154.699000", "120154.701000", "120154.704000", "120154.706000", "120154.709000", "120154.711000", "120154.713000", "120154.716000", "120154.718000", "120214.632000", "120214.635000", "120214.637000", "120214.640000", "120214.642000", "120214.645000", "120214.647000", "120214.650000", "120214.652000", "120214.654000", "120214.657000", "120214.659000", "120214.662000", "120214.664000", "120214.666000", "120214.669000", "120214.671000", "120214.674000", "120214.676000", "120214.679000", "120214.681000", "120214.684000", "120214.686000", "120214.688000", "120214.691000", "120214.693000", "120214.696000", "120214.698000", "120214.701000", "120214.703000", "120214.706000", "120214.708000", "120214.710000", "120234.632000", "120234.635000", "120234.638000", "120234.640000", "120234.642000", "120234.645000", "120234.647000", "120234.650000", "120234.652000", "120234.654000", "120234.657000", "120234.659000", "120234.662000", "120234.664000", "120234.667000", "120234.669000", "120234.671000", "120234.674000", "120234.676000", "120234.679000", "120234.681000", "120234.683000", "120234.686000", "120234.688000", "120234.691000", "120234.693000", "120234.695000", "120234.698000", "120234.701000", "120234.703000", "120234.706000", "120234.708000", "120234.711000", "120254.642000", "120254.644000", "120254.647000", "120254.649000", "120254.652000", "120254.654000", "120254.656000", "120254.659000", "120254.661000", "120254.663000", "120254.666000", "120254.668000", "120254.671000", "120254.673000", "120254.676000", "120254.678000", "120254.681000", "120254.683000", "120254.686000", "120254.688000", "120254.691000", "120254.693000", "120254.695000", "120254.698000", "120254.700000", "120254.703000", "120254.705000", "120254.707000", "120254.715000", "120254.718000", "120254.720000", "120254.723000", "120314.632000", "120314.635000", "120314.638000", "120314.641000", "120314.644000", "120314.646000", "120314.649000", "120314.651000", "120314.653000", "120314.656000", "120314.658000", "120314.661000", "120314.663000", "120314.666000", "120314.668000", "120314.671000", "120314.673000", "120314.676000", "120314.678000", "120314.680000", "120314.683000", "120314.727000", "120314.730000", "120314.733000", "120314.735000", "120314.738000", "120314.740000", "120314.743000", "120314.745000", "120314.748000", "120314.750000", "120314.753000", "120314.755000", "120334.633000", "120334.636000", "120334.639000", "120334.641000", "120334.643000", "120334.646000", "120334.648000", "120334.651000", "120334.653000", "120334.656000", "120334.658000", "120334.661000", "120334.663000", "120334.666000", "120334.668000", "120334.671000", "120334.673000", "120334.676000", "120334.678000", "120334.680000", "120334.683000", "120334.685000", "120334.688000", "120334.690000", "120334.693000", "120334.695000", "120334.698000", "120334.700000", "120334.710000", "120334.712000", "120334.715000", "120334.717000", "120334.720000", "120354.632000", "120354.635000", "120354.637000", "120354.640000", "120354.642000", "120354.645000", "120354.647000", "120354.650000", "120354.652000", "120354.655000", "120354.657000", "120354.660000", "120354.662000", "120354.665000", "120354.667000", "120354.670000", "120354.672000", "120354.675000", "120354.677000", "120354.680000", "120354.682000", "120354.685000", "120354.687000", "120354.690000", "120354.692000", "120354.694000", "120354.697000", "120354.699000", "120354.702000", "120354.704000", "120354.707000", "120354.709000", "120354.712000", "120414.632000", "120414.635000", "120414.637000", "120414.640000", "120414.642000", "120414.645000", "120414.647000", "120414.650000", "120414.652000", "120414.655000", "120414.657000", "120414.660000", "120414.662000", "120414.665000", "120414.667000", "120414.670000", "120414.672000", "120414.675000", "120414.677000", "120414.680000", "120414.682000", "120414.684000", "120414.687000", "120414.689000", "120414.692000", "120414.694000", "120414.697000", "120414.699000", "120414.702000", "120414.705000", "120414.707000", "120414.710000", "120414.712000", "120434.632000", "120434.635000", "120434.638000", "1