{
    "AcquisitionMatrixPE": 64,
    "AcquisitionNumber": 1,
    "AcquisitionTime": "15:04:20.820000",
    "BandwidthPerPixelPhaseEncode": 28.935,
    "BaseResolution": 64,
    "BodyPartExamined": "BRAIN",
    "CoilCombinationMethod": "Sum of Squares",
    "ConsistencyInfo": "N4_VE11E_LATEST_20181129",
    "ConversionSoftware": "dcm2niix",
    "ConversionSoftwareVersion": "v1.0.20211006",
    "DerivedVendorReportedEchoSpacing": 0.000540003,
    "DeviceSerialNumber": "166182",
    "DwellTime": 3.4e-06,
    "EchoTime": 0.032,
    "EchoTrainLength": 64,
    "EffectiveEchoSpacing": 0.000540003,
    "FlipAngle": 40,
    "ImageOrientationPatientDICOM": [
        0.997581,
        0.0683978,
        0.0124264,
        -0.0680083,
        0.99725,
        -0.0294516
    ],
    "ImageOrientationText": "Tra>Cor(-1.6)>Sag(0.8)",
    "ImageType": [
        "ORIGINAL",
        "PRIMARY",
        "M",
        "ND",
        "NORM",
        "MOSAIC"
    ],
    "ImagingFrequency": 123.258,
    "InPlanePhaseEncodingDirectionDICOM": "COL",
    "InstitutionAddress": "PEARSE STREET .,City,District,IE,D2",
    "InstitutionName": "TCIN",
    "InstitutionalDepartmentName": "MRI",
    "MRAcquisitionType": "2D",
    "MagneticFieldStrength": 3,
    "Manufacturer": "Siemens",
    "ManufacturersModelName": "Prisma",
    "Modality": "MR",
    "MultibandAccelerationFactor": 4,
    "PartialFourier": 1,
    "PatientPosition": "HFS",
    "PercentPhaseFOV": 100,
    "PercentSampling": 100,
    "PhaseEncodingDirection": "j-",
    "PhaseEncodingSteps": 64,
    "PhaseResolution": 1,
    "PixelBandwidth": 2300,
    "ProcedureStepDescription": "Rhodri^Head BOLD",
    "ProtocolName": "cmrr_mbep2d_bold_Pictures_AP",
    "PulseSequenceDetails": "%SiemensSeq%\\ep2d_bold",
    "ReceiveCoilActiveElements": "HC2,4,6,7;NC2;SC",
    "ReceiveCoilName": "HeadNeck_64",
    "ReconMatrixPE": 64,
    "RefLinesPE": 12,
    "RepetitionTime": 0.61,
    "SAR": 0.312339,
    "ScanOptions": "FS",
    "ScanningSequence": "EP",
    "SequenceName": "*epfid2d1_64",
    "SequenceVariant": "SK",
    "SeriesDescription": "cmrr_mbep2d_bold_Pictures_AP",
    "SeriesNumber": 7,
    "ShimSetting": [
        -3591,
        -7464,
        3839,
        1032,
        -345,
        228,
        56,
        -9
    ],
    "SliceThickness": 3,
    "SliceTiming": [
        0.2625,
        0,
        0.3275,
        0.0675,
        0.395,
        0.1325,
        0.46,
        0.1975,
        0.525,
        0.2625,
        0,
        0.3275,
        0.0675,
        0.395,
        0.1325,
        0.46,
        0.1975,
        0.525,
        0.2625,
        0,
        0.3275,
        0.0675,
        0.395,
        0.1325,
        0.46,
        0.1975,
        0.525,
        0.2625,
        0,
        0.3275,
        0.0675,
        0.395,
        0.1325,
        0.46,
        0.1975,
        0.525
    ],
    "SoftwareVersions": "syngo MR E11",
    "SpacingBetweenSlices": 3.3,
    "StationName": "AWP166182",
    "TaskName": "pictures",
    "TotalReadoutTime": 0.0340202,
    "TxRefAmp": 243.066,
    "dcmmeta_affine": [
        [
            -2.9927423000335693,
            -0.2040247768163681,
            0.0475420281291008,
            102.78955841064453
        ],
        [
            -0.2051934152841568,
            2.9917497634887695,
            -0.09416624158620834,
            -92.82591247558594
        ],
        [
            0.03727927431464195,
            0.08835472911596298,
            3.298313617706299,
            -103.75963592529297
        ],
        [
            0.0,
            0.0,
            0.0,
            1.0
        ]
    ],
    "dcmmeta_reorient_transform": [
        [
            0.0,
            -1.0,
            0.0,
            63.0
        ],
        [
            1.0,
            0.0,
            0.0,
            0.0
        ],
        [
            0.0,
            0.0,
            1.0,
            0.0
        ],
        [
            0.0,
            0.0,
            0.0,
            1.0
        ]
    ],
    "dcmmeta_shape": [
        64,
        64,
        36,
        90
    ],
    "dcmmeta_slice_dim": 2,
    "dcmmeta_version": 0.6,
    "global": {
        "const": {
            "AcquisitionMatrix": [
                64,
                0,
                0,
                64
            ],
            "AngioFlag": "N",
            "BitsAllocated": 16,
            "BitsStored": 12,
            "BodyPartExamined": "BRAIN",
            "Columns": 384,
            "EchoNumbers": 1,
            "EchoTime": 32.0,
            "EchoTrainLength": 64,
            "FlipAngle": 40.0,
            "HighBit": 11,
            "ImageOrientationPatient": [
                0.99758073565056,
                0.06839780581094,
                0.01242642423003,
                -0.068008261248,
                0.99724995919713,
                -0.0294515752268
            ],
            "ImagePositionPatient": [
                -536.13078319111,
                -607.16525402496,
                -90.021218409181
            ],
            "ImageType": [
                "ORIGINAL",
                "PRIMARY",
                "M",
                "ND",
                "NORM",
                "MOSAIC"
            ],
            "ImagedNucleus": "1H",
            "ImagingFrequency": 123.257528,
            "InPlanePhaseEncodingDirection": "COL",
            "MRAcquisitionType": "2D",
            "MagneticFieldStrength": 3.0,
            "Manufacturer": "SIEMENS",
            "ManufacturerModelName": "Prisma",
            "Modality": "MR",
            "NumberOfAverages": 1.0,
            "NumberOfPhaseEncodingSteps": 64,
            "PercentPhaseFieldOfView": 100.0,
            "PercentSampling": 100.0,
            "PerformedProcedureStepStartTime": "143611.191000",
            "PhotometricInterpretation": "MONOCHROME2",
            "PixelBandwidth": 2300.0,
            "PixelRepresentation": 0,
            "PixelSpacing": [
                3.0,
                3.0
            ],
            "ProtocolName": "cmrr_mbep2d_bold_Pictures_AP",
            "RepetitionTime": 610.0,
            "Rows": 384,
            "SAR": 0.31233922463692,
            "SamplesPerPixel": 1,
            "ScanOptions": "FS",
            "ScanningSequence": "EP",
            "SequenceName": "*epfid2d1_64",
            "SequenceVariant": "SK",
            "SeriesDescription": "cmrr_mbep2d_bold_Pictures_AP",
            "SeriesNumber": 7,
            "SeriesTime": "150446.942000",
            "SliceLocation": -99.576949671984,
            "SliceThickness": 3.0,
            "SmallestImagePixelValue": 0,
            "SoftwareVersions": "syngo MR E11",
            "SpacingBetweenSlices": 3.3000001051771,
            "SpecificCharacterSet": "ISO_IR 100",
            "StudyID": "1",
            "StudyTime": "143611.119000",
            "TransmitCoilName": "Body",
            "VariableFlipAngleFlag": "N",
            "WindowCenterWidthExplanation": "Algo1"
        },
        "slices": {}
    },
    "time": {
        "samples": {
            "AcquisitionNumber": [
                1,
                2,
                3,
                4,
                5,
                6,
                7,
                8,
                9,
                10,
                11,
                12,
                13,
                14,
                15,
                16,
                17,
                18,
                19,
                20,
                21,
                22,
                23,
                24,
                25,
                26,
                27,
                28,
                29,
                30,
                31,
                32,
                33,
                34,
                35,
                36,
                37,
                38,
                39,
                40,
                41,
                42,
                43,
                44,
                45,
                46,
                47,
                48,
                49,
                50,
                51,
                52,
                53,
                54,
                55,
                56,
                57,
                58,
                59,
                60,
                61,
                62,
                63,
                64,
                65,
                66,
                67,
                68,
                69,
                70,
                71,
                72,
                73,
                74,
                75,
                76,
                77,
                78,
                79,
                80,
                81,
                82,
                83,
                84,
                85,
                86,
                87,
                88,
                89,
                90
            ],
            "AcquisitionTime": [
                "150420.820000",
                "150421.430000",
                "150422.040000",
                "150422.650000",
                "150423.260000",
                "150423.870000",
                "150424.480000",
                "150425.090000",
                "150425.700000",
                "150426.310000",
                "150426.920000",
                "150427.530000",
                "150428.140000",
                "150428.750000",
                "150429.360000",
                "150429.970000",
                "150430.580000",
                "150431.190000",
                "150431.800000",
                "150432.410000",
                "150433.020000",
                "150433.630000",
                "150434.240000",
                "150434.850000",
                "150435.460000",
                "150436.070000",
                "150436.680000",
                "150437.290000",
                "150437.900000",
                "150438.510000",
                "150439.120000",
                "150439.730000",
                "150440.340000",
                "150440.950000",
                "150441.560000",
                "150442.170000",
                "150442.780000",
                "150443.390000",
                "150444.000000",
                "150444.610000",
                "150445.220000",
                "150445.830000",
                "150446.440000",
                "150447.050000",
                "150447.660000",
                "150448.270000",
                "150448.880000",
                "150449.490000",
                "150450.100000",
                "150450.710000",
                "150451.320000",
                "150451.930000",
                "150452.540000",
                "150453.150000",
                "150453.760000",
                "150454.370000",
                "150454.980000",
                "150455.590000",
                "150456.200000",
                "150456.810000",
                "150457.420000",
                "150458.030000",
                "150458.640000",
                "150459.250000",
                "150459.860000",
                "150500.470000",
                "150501.080000",
                "150501.690000",
                "150502.300000",
                "150502.910000",
                "150503.520000",
                "150504.130000",
                "150504.740000",
                "150505.350000",
                "150505.960000",
                "150506.570000",
                "150507.180000",
                "150507.790000",
                "150508.400000",
                "150509.010000",
                "150509.620000",
                "150510.230000",
                "150510.840000",
                "150511.450000",
                "150512.060000",
                "150512.670000",
                "150513.280000",
                "150513.890000",
                "150514.500000",
                "150515.110000"
            ],
            "ContentTime": [
                "150446.946000",
                "150446.949000",
                "150446.952000",
                "150446.954000",
                "150446.962000",
                "150446.965000",
                "150446.967000",
                "150446.970000",
                "150446.972000",
                "150446.974000",
                "150446.977000",
                "150446.979000",
                "150446.982000",
                "150446.984000",
                "150446.987000",
                "150446.993000",
                "150447.001000",
                "150447.004000",
                "150447.006000",
                "150447.009000",
                "150447.011000",
                "150447.014000",
                "150447.016000",
                "150447.019000",
                "150447.021000",
                "150447.023000",
                "150447.026000",
                "150447.028000",
                "150447.031000",
                "150447.033000",
                "150447.036000",
                "150447.038000",
                "150447.040000",
                "150447.043000",
                "150447.045000",
                "150447.048000",
                "150447.050000",
                "150447.053000",
                "150447.055000",
                "150447.057000",
                "150447.060000",
                "150447.063000",
                "150506.941000",
                "150506.944000",
                "150506.946000",
                "150506.949000",
                "150506.951000",
                "150506.954000",
                "150506.956000",
                "150506.959000",
                "150506.961000",
                "150506.963000",
                "150506.966000",
                "150506.968000",
                "150506.970000",
                "150506.973000",
                "150506.975000",
                "150506.978000",
                "150506.980000",
                "150506.983000",
                "150506.985000",
                "150506.987000",
                "150506.990000",
                "150506.992000",
                "150506.995000",
                "150506.997000",
                "150507.000000",
                "150507.003000",
                "150507.005000",
                "150507.008000",
                "150507.010000",
                "150507.012000",
                "150507.015000",
                "150507.017000",
                "150507.020000",
                "150516.481000",
                "150516.483000",
                "150516.486000",
                "150516.488000",
                "150516.491000",
                "150516.493000",
                "150516.495000",
                "150516.498000",
                "150516.500000",
                "150516.503000",
                "150516.505000",
                "150516.508000",
                "150516.510000",
                "150516.513000",
                "150516.515000"
            ],
            "InstanceCreationTime": [
                "150446.946000",
                "150446.949000",
                "150446.952000",
                "150446.954000",
                "150446.962000",
                "150446.965000",
                "150446.967000",
                "150446.970000",
                "150446.972000",
                "150446.974000",
                "150446.977000",
                "150446.979000",
                "150446.982000",
                "150446.984000",
                "150446.987000",
                "150446.993000",
                "150447.001000",
                "150447.004000",
                "150447.006000",
                "150447.009000",
                "150447.011000",
                "150447.014000",
                "150447.016000",
                "150447.019000",
                "150447.021000",
                "150447.023000",
                "150447.026000",
                "150447.028000",
                "150447.031000",
                "150447.033000",
                "150447.036000",
                "150447.038000",
                "150447.040000",
                "150447.043000",
                "150447.045000",
                "150447.048000",
                "150447.050000",
                "150447.053000",
                "150447.055000",
                "150447.057000",
                "150447.060000",
                "150447.063000",
                "150506.941000",
                "150506.944000",
                "150506.946000",
                "150506.949000",
                "150506.951000",
                "150506.954000",
                "150506.956000",
                "150506.959000",
                "150506.961000",
                "150506.963000",
                "150506.966000",
                "150506.968000",
                "150506.970000",
                "150506.973000",
                "150506.975000",
                "150506.978000",
                "150506.980000",
                "150506.983000",
                "150506.985000",
                "150506.987000",
                "150506.990000",
                "150506.992000",
                "150506.995000",
                "150506.997000",
                "150507.000000",
                "150507.003000",
                "150507.005000",
                "150507.008000",
                "150507.010000",
                "150507.012000",
                "150507.015000",
                "150507.017000",
                "150507.020000",
                "150516.481000",
                "150516.483000",
                "150516.486000",
                "150516.488000",
                "150516.491000",
                "150516.493000",
                "150516.495000",
                "150516.498000",
                "150516.500000",
                "150516.503000",
                "150516.505000",
                "150516.508000",
                "150516.510000",
                "150516.513000",
                "150516.515000"
            ],
            "InstanceNumber": [
                1,
                2,
                3,
                4,
                5,
                6,
                7,
                8,
                9,
                10,
                11,
                12,
                13,
                14,
                15,
                16,
                17,
                18,
                19,
                20,
                21,
                22,
                23,
                24,
                25,
                26,
                27,
                28,
                29,
                30,
                31,
                32,
                33,
                34,
                35,
                36,
                37,
                38,
                39,
                40,
                41,
                42,
                43,
                44,
                45,
                46,
                47,
                48,
                49,
                50,
                51,
                52,
                53,
                54,
                55,
                56,
                57,
                58,
                59,
                60,
                61,
                62,
                63,
                64,
                65,
                66,
                67,
                68,
                69,
                70,
                71,
                72,
                73,
                74,
                75,
                76,
                77,
                78,
                79,
                80,
                81,
                82,
                83,
                84,
                85,
                86,
                87,
                88,
                89,
                90
            ],
            "LargestImagePixelValue": [
                451,
                451,
                438,
                451,
                428,
                437,
                458,
                422,
                419,
                433,
                435,
                419,
                426,
                415,
                416,
                416,
                415,
                416,
                416,
                421,
                419,
                434,
                419,
                413,
                417,
                421,
                418,
                418,
                428,
                422,
                432,
                419,
                429,
                420,
                413,
                427,
                418,
                427,
                422,
                443,
                416,
                418,
                436,
                426,
                416,
                418,
                416,
                417,
                420,
                415,
                417,
                414,
                423,
                417,
                421,
                426,
                426,
                425,
                431,
                457,
                429,
                422,
                418,
                422,
                416,
                413,
                481,
                478,
                528,
                563,
                668,
                539,
                532,
                490,
                463,
                430,
                470,
                434,
                411,
                422,
                527,
                581,
                505,
                441,
                416,
                425,
                418,
                435,
                664,
                492
            ],
            "WindowCenter": [
                291.0,
                288.0,
                287.0,
                287.0,
                285.0,
                284.0,
                284.0,
                284.0,
                284.0,
                285.0,
                285.0,
                284.0,
                284.0,
                284.0,
                284.0,
                284.0,
                285.0,
                284.0,
                285.0,
                285.0,
                287.0,
                284.0,
                286.0,
                284.0,
                285.0,
                284.0,
                284.0,
                284.0,
                284.0,
                284.0,
                285.0,
                284.0,
                284.0,
                284.0,
                285.0,
                285.0,
                284.0,
                286.0,
                284.0,
                285.0,
                285.0,
                285.0,
                285.0,
                284.0,
                284.0,
                285.0,
                284.0,
                283.0,
                284.0,
                284.0,
                284.0,
                284.0,
                284.0,
                284.0,
                284.0,
                283.0,
                283.0,
                284.0,
                282.0,
                285.0,
                283.0,
                286.0,
                283.0,
                283.0,
                284.0,
                285.0,
                283.0,
                283.0,
                282.0,
                281.0,
                283.0,
                280.0,
                281.0,
                278.0,
                276.0,
                276.0,
                276.0,
                278.0,
                277.0,
                281.0,
                282.0,
                282.0,
                283.0,
                278.0,
                281.0,
                278.0,
                281.0,
                282.0,
                283.0,
                283.0
            ],
            "WindowWidth": [
                636.0,
                630.0,
                628.0,
                628.0,
                623.0,
                623.0,
                623.0,
                622.0,
                622.0,
                623.0,
                623.0,
                622.0,
                621.0,
                622.0,
                621.0,
                623.0,
                623.0,
                623.0,
                624.0,
                624.0,
                628.0,
                622.0,
                627.0,
                622.0,
                624.0,
                623.0,
                622.0,
                622.0,
                623.0,
                623.0,
                624.0,
                622.0,
                623.0,
                621.0,
                623.0,
                623.0,
                623.0,
                626.0,
                622.0,
                624.0,
                623.0,
                623.0,
                624.0,
                623.0,
                622.0,
                623.0,
                622.0,
                621.0,
                622.0,
                622.0,
                623.0,
                623.0,
                623.0,
                623.0,
                622.0,
                622.0,
                621.0,
                623.0,
                619.0,
                623.0,
                620.0,
                626.0,
                621.0,
                621.0,
                622.0,
                624.0,
                620.0,
                619.0,
                619.0,
                616.0,
                621.0,
                615.0,
                616.0,
                611.0,
                607.0,
                608.0,
                606.0,
                609.0,
                608.0,
                616.0,
                618.0,
                618.0,
                619.0,
                611.0,
                617.0,
                611.0,
                616.0,
                620.0,
                621.0,
                621.0
            ]
        },
        "slices": {}
    },
    "EventTimestamp": "15-06-11"
}