{"AcquisitionMatrixPE": 64, "AcquisitionNumber": 1, "AcquisitionTime": "14:46:35.710000", "BandwidthPerPixelPhaseEncode": 28.935, "BaseResolution": 64, "BodyPartExamined": "BRAIN", "CoilCombinationMethod": "Sum of Squares", "ConsistencyInfo": "N4_VE11E_LATEST_20181129", "ConversionSoftware": "dcm2niix", "ConversionSoftwareVersion": "v1.0.20230411", "DerivedVendorReportedEchoSpacing": 0.000540003, "DeviceSerialNumber": "166182", "DwellTime": 3.4e-06, "EchoTime": 0.032, "EchoTrainLength": 64, "EffectiveEchoSpacing": 0.000540003, "FlipAngle": 40, "HeudiconvVersion": "0.13.1", "ImageOrientationPatientDICOM": [0.996471, -0.0716571, 0.0437165, 0.0733512, 0.996564, -0.0384604], "ImageOrientationText": "Tra>Cor(-2.4)>Sag(2.3)", "ImageType": ["ORIGINAL", "PRIMARY", "M", "ND", "NORM", "MOSAIC"], "ImagingFrequency": 123.25464, "InPlanePhaseEncodingDirectionDICOM": "COL", "InstitutionAddress": "PEARSE STREET .,City,District,IE,D2", "InstitutionName": "TCIN", "InstitutionalDepartmentName": "MRI", "MRAcquisitionType": "2D", "MagneticFieldStrength": 3, "Manufacturer": "Siemens", "ManufacturersModelName": "Prisma", "Modality": "MR", "MultibandAccelerationFactor": 4, "NonlinearGradientCorrection": false, "PartialFourier": 1, "PatientPosition": "HFS", "PercentPhaseFOV": 100, "PercentSampling": 100, "PhaseEncodingDirection": "j-", "PhaseEncodingSteps": 64, "PhaseResolution": 1, "PixelBandwidth": 2300, "ProcedureStepDescription": "Rhodri^Head BOLD", "ProtocolName": "cmrr_mbep2d_Pictures_AP_RDS", "PulseSequenceDetails": "%SiemensSeq%\\ep2d_bold", "ReceiveCoilActiveElements": "HC2,4,6,7;SC", "ReceiveCoilName": "SpecialPurpose_4", "ReconMatrixPE": 64, "RefLinesPE": 12, "RepetitionTime": 0.61, "SAR": 0.29325, "ScanOptions": "FS", "ScanningSequence": "EP", "SequenceName": "*epfid2d1_64", "SequenceVariant": "SK", "SeriesDescription": "cmrr_mbep2d_Pictures_AP_RDS", "SeriesNumber": 15, "ShimSetting": [-3563, -7471, 3903, 733, -51, -77, 55, 211], "SliceThickness": 3, "SliceTiming": [0.2625, 0, 0.33, 0.0675, 0.395, 0.1325, 0.46, 0.1975, 0.525, 0.2625, 0, 0.33, 0.0675, 0.395, 0.1325, 0.46, 0.1975, 0.525, 0.2625, 0, 0.33, 0.0675, 0.395, 0.1325, 0.46, 0.1975, 0.525, 0.2625, 0, 0.33, 0.0675, 0.395, 0.1325, 0.46, 0.1975, 0.525], "SoftwareVersions": "syngo MR E11", "SpacingBetweenSlices": 3.3, "StationName": "AWP166182", "TaskName": "pictures", "TotalReadoutTime": 0.0340202, "TxRefAmp": 241.484, "dcmmeta_affine": [[-2.989412546157837, 0.22005347907543182, 0.13467401266098022, 85.27262115478516], [0.2149713933467865, 2.9896929264068604, -0.13705332577228546, -111.83211517333984], [0.13114939630031586, 0.1153811663389206, 3.294401168823242, -99.27507781982422], [0.0, 0.0, 0.0, 1.0]], "dcmmeta_reorient_transform": [[0.0, -1.0, 0.0, 63.0], [1.0, 0.0, 0.0, 0.0], [0.0, 0.0, 1.0, 0.0], [0.0, 0.0, 0.0, 1.0]], "dcmmeta_shape": [64, 64, 36, 510], "dcmmeta_slice_dim": 2, "dcmmeta_version": 0.6, "global": {"const": {"AcquisitionMatrix": [64, 0, 0, 64], "AngioFlag": "N", "BitsAllocated": 16, "BitsStored": 12, "BodyPartExamined": "BRAIN", "Columns": 384, "EchoNumbers": 1, "EchoTime": 32.0, "EchoTrainLength": 64, "FlipAngle": 40.0, "HighBit": 11, "ImageOrientationPatient": [0.99647083546695, -0.0716571331921, 0.0437164651646, 0.07335116141635, 0.99656430077696, -0.0384603891789], "ImagePositionPatient": [-612.65054563279, -520.47397603865, -94.528979870282], "ImageType": ["ORIGINAL", "PRIMARY", "M", "ND", "NORM", "MOSAIC"], "ImagedNucleus": "1H", "ImagingFrequency": 123.25464, "InPlanePhaseEncodingDirection": "COL", "MRAcquisitionType": "2D", "MagneticFieldStrength": 3.0, "Manufacturer": "SIEMENS", "ManufacturerModelName": "Prisma", "Modality": "MR", "NumberOfAverages": 1.0, "NumberOfPhaseEncodingSteps": 64, "PercentPhaseFieldOfView": 100.0, "PercentSampling": 100.0, "PerformedProcedureStepStartTime": "141247.895000", "PhotometricInterpretation": "MONOCHROME2", "PixelBandwidth": 2300.0, "PixelRepresentation": 0, "PixelSpacing": [3.0, 3.0], "ProtocolName": "cmrr_mbep2d_Pictures_AP_RDS", "RepetitionTime": 610.0, "Rows": 384, "SAR": 0.29324956795359, "SamplesPerPixel": 1, "ScanOptions": "FS", "ScanningSequence": "EP", "SequenceName": "*epfid2d1_64", "SequenceVariant": "SK", "SeriesDescription": "cmrr_mbep2d_Pictures_AP_RDS", "SeriesNumber": 15, "SeriesTime": "144655.837000", "SliceLocation": -90.982110375063, "SliceThickness": 3.0, "SmallestImagePixelValue": 0, "SoftwareVersions": "syngo MR E11", "SpacingBetweenSlices": 3.3000000178819, "SpecificCharacterSet": "ISO_IR 100", "StudyID": "1", "StudyTime": "141247.806000", "TransmitCoilName": "Body", "VariableFlipAngleFlag": "N", "WindowCenterWidthExplanation": "Algo1"}, "slices": {}}, "time": {"samples": {"AcquisitionNumber": [1, 2, 3, 4, 5, 6, 7, 8, 9, 10, 11, 12, 13, 14, 15, 16, 17, 18, 19, 20, 21, 22, 23, 24, 25, 26, 27, 28, 29, 30, 31, 32, 33, 34, 35, 36, 37, 38, 39, 40, 41, 42, 43, 44, 45, 46, 47, 48, 49, 50, 51, 52, 53, 54, 55, 56, 57, 58, 59, 60, 61, 62, 63, 64, 65, 66, 67, 68, 69, 70, 71, 72, 73, 74, 75, 76, 77, 78, 79, 80, 81, 82, 83, 84, 85, 86, 87, 88, 89, 90, 91, 92, 93, 94, 95, 96, 97, 98, 99, 100, 101, 102, 103, 104, 105, 106, 107, 108, 109, 110, 111, 112, 113, 114, 115, 116, 117, 118, 119, 120, 121, 122, 123, 124, 125, 126, 127, 128, 129, 130, 131, 132, 133, 134, 135, 136, 137, 138, 139, 140, 141, 142, 143, 144, 145, 146, 147, 148, 149, 150, 151, 152, 153, 154, 155, 156, 157, 158, 159, 160, 161, 162, 163, 164, 165, 166, 167, 168, 169, 170, 171, 172, 173, 174, 175, 176, 177, 178, 179, 180, 181, 182, 183, 184, 185, 186, 187, 188, 189, 190, 191, 192, 193, 194, 195, 196, 197, 198, 199, 200, 201, 202, 203, 204, 205, 206, 207, 208, 209, 210, 211, 212, 213, 214, 215, 216, 217, 218, 219, 220, 221, 222, 223, 224, 225, 226, 227, 228, 229, 230, 231, 232, 233, 234, 235, 236, 237, 238, 239, 240, 241, 242, 243, 244, 245, 246, 247, 248, 249, 250, 251, 252, 253, 254, 255, 256, 257, 258, 259, 260, 261, 262, 263, 264, 265, 266, 267, 268, 269, 270, 271, 272, 273, 274, 275, 276, 277, 278, 279, 280, 281, 282, 283, 284, 285, 286, 287, 288, 289, 290, 291, 292, 293, 294, 295, 296, 297, 298, 299, 300, 301, 302, 303, 304, 305, 306, 307, 308, 309, 310, 311, 312, 313, 314, 315, 316, 317, 318, 319, 320, 321, 322, 323, 324, 325, 326, 327, 328, 329, 330, 331, 332, 333, 334, 335, 336, 337, 338, 339, 340, 341, 342, 343, 344, 345, 346, 347, 348, 349, 350, 351, 352, 353, 354, 355, 356, 357, 358, 359, 360, 361, 362, 363, 364, 365, 366, 367, 368, 369, 370, 371, 372, 373, 374, 375, 376, 377, 378, 379, 380, 381, 382, 383, 384, 385, 386, 387, 388, 389, 390, 391, 392, 393, 394, 395, 396, 397, 398, 399, 400, 401, 402, 403, 404, 405, 406, 407, 408, 409, 410, 411, 412, 413, 414, 415, 416, 417, 418, 419, 420, 421, 422, 423, 424, 425, 426, 427, 428, 429, 430, 431, 432, 433, 434, 435, 436, 437, 438, 439, 440, 441, 442, 443, 444, 445, 446, 447, 448, 449, 450, 451, 452, 453, 454, 455, 456, 457, 458, 459, 460, 461, 462, 463, 464, 465, 466, 467, 468, 469, 470, 471, 472, 473, 474, 475, 476, 477, 478, 479, 480, 481, 482, 483, 484, 485, 486, 487, 488, 489, 490, 491, 492, 493, 494, 495, 496, 497, 498, 499, 500, 501, 502, 503, 504, 505, 506, 507, 508, 509, 510], "AcquisitionTime": ["144635.710000", "144636.320000", "144636.930000", "144637.540000", "144638.150000", "144638.760000", "144639.370000", "144639.980000", "144640.590000", "144641.200000", "144641.810000", "144642.420000", "144643.030000", "144643.640000", "144644.250000", "144644.860000", "144645.470000", "144646.080000", "144646.690000", "144647.300000", "144647.910000", "144648.520000", "144649.130000", "144649.740000", "144650.350000", "144650.960000", "144651.570000", "144652.180000", "144652.790000", "144653.400000", "144654.010000", "144654.620000", "144655.230000", "144655.840000", "144656.450000", "144657.060000", "144657.670000", "144658.280000", "144658.890000", "144659.500000", "144700.110000", "144700.720000", "144701.330000", "144701.940000", "144702.550000", "144703.160000", "144703.770000", "144704.380000", "144704.990000", "144705.600000", "144706.210000", "144706.820000", "144707.430000", "144708.040000", "144708.650000", "144709.260000", "144709.870000", "144710.480000", "144711.090000", "144711.700000", "144712.310000", "144712.920000", "144713.530000", "144714.140000", "144714.750000", "144715.360000", "144715.970000", "144716.580000", "144717.190000", "144717.800000", "144718.410000", "144719.020000", "144719.630000", "144720.240000", "144720.850000", "144721.460000", "144722.070000", "144722.680000", "144723.290000", "144723.900000", "144724.510000", "144725.120000", "144725.730000", "144726.340000", "144726.950000", "144727.560000", "144728.170000", "144728.780000", "144729.390000", "144730.000000", "144730.610000", "144731.220000", "144731.830000", "144732.440000", "144733.050000", "144733.660000", "144734.270000", "144734.880000", "144735.490000", "144736.100000", "144736.710000", "144737.320000", "144737.930000", "144738.540000", "144739.150000", "144739.760000", "144740.370000", "144740.980000", "144741.590000", "144742.200000", "144742.810000", "144743.420000", "144744.030000", "144744.640000", "144745.250000", "144745.860000", "144746.470000", "144747.080000", "144747.690000", "144748.300000", "144748.910000", "144749.520000", "144750.130000", "144750.740000", "144751.350000", "144751.960000", "144752.570000", "144753.180000", "144753.790000", "144754.400000", "144755.010000", "144755.620000", "144756.230000", "144756.840000", "144757.450000", "144758.060000", "144758.670000", "144759.280000", "144759.890000", "144800.500000", "144801.110000", "144801.720000", "144802.330000", "144802.940000", "144803.550000", "144804.160000", "144804.770000", "144805.380000", "144805.990000", "144806.600000", "144807.210000", "144807.820000", "144808.430000", "144809.040000", "144809.650000", "144810.260000", "144810.870000", "144811.480000", "144812.090000", "144812.700000", "144813.310000", "144813.920000", "144814.530000", "144815.140000", "144815.750000", "144816.360000", "144816.970000", "144817.580000", "144818.190000", "144818.800000", "144819.410000", "144820.020000", "144820.630000", "144821.240000", "144821.850000", "144822.460000", "144823.070000", "144823.680000", "144824.290000", "144824.900000", "144825.510000", "144826.120000", "144826.730000", "144827.340000", "144827.950000", "144828.560000", "144829.170000", "144829.780000", "144830.390000", "144831.000000", "144831.610000", "144832.220000", "144832.830000", "144833.440000", "144834.050000", "144834.660000", "144835.270000", "144835.880000", "144836.490000", "144837.100000", "144837.710000", "144838.320000", "144838.930000", "144839.540000", "144840.150000", "144840.760000", "144841.370000", "144841.980000", "144842.590000", "144843.200000", "144843.810000", "144844.420000", "144845.030000", "144845.640000", "144846.250000", "144846.860000", "144847.470000", "144848.080000", "144848.690000", "144849.300000", "144849.910000", "144850.520000", "144851.130000", "144851.740000", "144852.350000", "144852.960000", "144853.570000", "144854.180000", "144854.790000", "144855.400000", "144856.010000", "144856.620000", "144857.230000", "144857.840000", "144858.450000", "144859.060000", "144859.670000", "144900.280000", "144900.890000", "144901.500000", "144902.110000", "144902.720000", "144903.330000", "144903.940000", "144904.550000", "144905.160000", "144905.770000", "144906.380000", "144906.990000", "144907.600000", "144908.210000", "144908.820000", "144909.430000", "144910.040000", "144910.650000", "144911.260000", "144911.870000", "144912.480000", "144913.090000", "144913.700000", "144914.310000", "144914.920000", "144915.530000", "144916.140000", "144916.750000", "144917.360000", "144917.970000", "144918.580000", "144919.190000", "144919.800000", "144920.410000", "144921.020000", "144921.630000", "144922.240000", "144922.850000", "144923.460000", "144924.070000", "144924.680000", "144925.290000", "144925.900000", "144926.510000", "144927.120000", "144927.730000", "144928.340000", "144928.950000", "144929.560000", "144930.170000", "144930.780000", "144931.390000", "144932.000000", "144932.610000", "144933.220000", "144933.830000", "144934.440000", "144935.050000", "144935.660000", "144936.270000", "144936.880000", "144937.490000", "144938.100000", "144938.710000", "144939.320000", "144939.930000", "144940.540000", "144941.150000", "144941.760000", "144942.370000", "144942.980000", "144943.590000", "144944.200000", "144944.810000", "144945.420000", "144946.030000", "144946.640000", "144947.250000", "144947.860000", "144948.470000", "144949.080000", "144949.690000", "144950.300000", "144950.910000", "144951.520000", "144952.130000", "144952.740000", "144953.350000", "144953.960000", "144954.570000", "144955.180000", "144955.790000", "144956.400000", "144957.010000", "144957.620000", "144958.230000", "144958.840000", "144959.450000", "145000.060000", "145000.670000", "145001.280000", "145001.890000", "145002.500000", "145003.110000", "145003.720000", "145004.330000", "145004.940000", "145005.550000", "145006.160000", "145006.770000", "145007.380000", "145007.990000", "145008.600000", "145009.210000", "145009.820000", "145010.430000", "145011.040000", "145011.650000", "145012.260000", "145012.870000", "145013.480000", "145014.090000", "145014.700000", "145015.310000", "145015.920000", "145016.530000", "145017.140000", "145017.750000", "145018.360000", "145018.970000", "145019.580000", "145020.190000", "145020.800000", "145021.410000", "145022.020000", "145022.630000", "145023.240000", "145023.850000", "145024.460000", "145025.070000", "145025.680000", "145026.290000", "145026.900000", "145027.510000", "145028.120000", "145028.730000", "145029.340000", "145029.950000", "145030.560000", "145031.170000", "145031.780000", "145032.390000", "145033.000000", "145033.610000", "145034.220000", "145034.830000", "145035.440000", "145036.050000", "145036.660000", "145037.270000", "145037.880000", "145038.490000", "145039.100000", "145039.710000", "145040.320000", "145040.930000", "145041.540000", "145042.150000", "145042.760000", "145043.370000", "145043.980000", "145044.590000", "145045.200000", "145045.810000", "145046.420000", "145047.030000", "145047.640000", "145048.250000", "145048.860000", "145049.470000", "145050.080000", "145050.690000", "145051.300000", "145051.910000", "145052.520000", "145053.130000", "145053.740000", "145054.350000", "145054.960000", "145055.570000", "145056.180000", "145056.790000", "145057.400000", "145058.010000", "145058.620000", "145059.230000", "145059.840000", "145100.450000", "145101.060000", "145101.670000", "145102.280000", "145102.890000", "145103.500000", "145104.110000", "145104.720000", "145105.330000", "145105.940000", "145106.550000", "145107.160000", "145107.770000", "145108.380000", "145108.990000", "145109.600000", "145110.210000", "145110.820000", "145111.430000", "145112.040000", "145112.650000", "145113.260000", "145113.870000", "145114.480000", "145115.090000", "145115.700000", "145116.310000", "145116.920000", "145117.530000", "145118.140000", "145118.750000", "145119.360000", "145119.970000", "145120.580000", "145121.190000", "145121.800000", "145122.410000", "145123.020000", "145123.630000", "145124.240000", "145124.850000", "145125.460000", "145126.070000", "145126.680000", "145127.290000", "145127.900000", "145128.510000", "145129.120000", "145129.730000", "145130.340000", "145130.950000", "145131.560000", "145132.170000", "145132.780000", "145133.390000", "145134.000000", "145134.610000", "145135.220000", "145135.830000", "145136.440000", "145137.050000", "145137.660000", "145138.270000", "145138.880000", "145139.490000", "145140.100000", "145140.710000", "145141.320000", "145141.930000", "145142.540000", "145143.150000", "145143.760000", "145144.370000", "145144.980000", "145145.590000", "145146.200000"], "ContentTime": ["144655.841000", "144655.844000", "144655.847000", "144655.851000", "144655.853000", "144655.856000", "144655.858000", "144655.861000", "144655.863000", "144655.865000", "144655.868000", "144655.870000", "144655.879000", "144655.881000", "144655.883000", "144655.886000", "144655.889000", "144655.891000", "144655.893000", "144655.896000", "144655.898000", "144655.901000", "144655.903000", "144655.905000", "144655.915000", "144655.918000", "144655.920000", "144655.923000", "144655.925000", "144655.927000", "144655.930000", "144655.932000", "144715.837000", "144715.839000", "144715.842000", "144715.844000", "144715.847000", "144715.849000", "144715.852000", "144715.854000", "144715.857000", "144715.859000", "144715.861000", "144715.864000", "144715.866000", "144715.868000", "144715.871000", "144715.873000", "144715.875000", "144715.878000", "144715.880000", "144715.882000", "144715.885000", "144715.887000", "144715.889000", "144715.892000", "144715.894000", "144715.897000", "144715.899000", "144715.901000", "144715.904000", "144715.912000", "144715.915000", "144715.917000", "144715.920000", "144735.836000", "144735.839000", "144735.841000", "144735.844000", "144735.846000", "144735.849000", "144735.851000", "144735.853000", "144735.856000", "144735.858000", "144735.861000", "144735.863000", "144735.866000", "144735.868000", "144735.871000", "144735.873000", "144735.875000", "144735.878000", "144735.880000", "144735.883000", "144735.885000", "144735.887000", "144735.890000", "144735.892000", "144735.895000", "144735.897000", "144735.900000", "144735.902000", "144735.904000", "144735.913000", "144735.915000", "144735.918000", "144735.920000", "144755.837000", "144755.840000", "144755.842000", "144755.845000", "144755.847000", "144755.850000", "144755.852000", "144755.854000", "144755.857000", "144755.860000", "144755.869000", "144755.872000", "144755.874000", "144755.877000", "144755.879000", "144755.882000", "144755.884000", "144755.886000", "144755.889000", "144755.891000", "144755.894000", "144755.896000", "144755.899000", "144755.901000", "144755.904000", "144755.906000", "144755.908000", "144755.911000", "144755.913000", "144755.915000", "144755.918000", "144755.920000", "144815.837000", "144815.840000", "144815.843000", "144815.845000", "144815.847000", "144815.850000", "144815.852000", "144815.856000", "144815.858000", "144815.861000", "144815.863000", "144815.865000", "144815.868000", "144815.870000", "144815.873000", "144815.875000", "144815.877000", "144815.880000", "144815.882000", "144815.885000", "144815.887000", "144815.889000", "144815.892000", "144815.894000", "144815.897000", "144815.899000", "144815.902000", "144815.904000", "144815.907000", "144815.909000", "144815.912000", "144815.914000", "144815.917000", "144835.837000", "144835.840000", "144835.842000", "144835.845000", "144835.847000", "144835.850000", "144835.852000", "144835.855000", "144835.857000", "144835.859000", "144835.862000", "144835.864000", "144835.867000", "144835.869000", "144835.872000", "144835.874000", "144835.876000", "144835.879000", "144835.881000", "144835.883000", "144835.886000", "144835.888000", "144835.891000", "144835.893000", "144835.896000", "144835.898000", "144835.901000", "144835.903000", "144835.906000", "144835.908000", "144835.910000", "144835.913000", "144835.915000", "144855.836000", "144855.839000", "144855.841000", "144855.844000", "144855.846000", "144855.849000", "144855.851000", "144855.853000", "144855.856000", "144855.858000", "144855.861000", "144855.863000", "144855.875000", "144855.877000", "144855.879000", "144855.882000", "144855.885000", "144855.887000", "144855.890000", "144855.892000", "144855.895000", "144855.897000", "144855.900000", "144855.902000", "144855.905000", "144855.907000", "144855.913000", "144855.915000", "144855.918000", "144855.920000", "144855.922000", "144855.925000", "144855.927000", "144915.836000", "144915.839000", "144915.847000", "144915.849000", "144915.852000", "144915.854000", "144915.857000", "144915.859000", "144915.861000", "144915.864000", "144915.866000", "144915.868000", "144915.871000", "144915.873000", "144915.876000", "144915.878000", "144915.881000", "144915.883000", "144915.886000", "144915.888000", "144915.890000", "144915.893000", "144915.895000", "144915.897000", "144915.900000", "144915.902000", "144915.905000", "144915.907000", "144915.910000", "144915.912000", "144915.915000", "144915.917000", "144915.919000", "144935.836000", "144935.839000", "144935.841000", "144935.844000", "144935.847000", "144935.849000", "144935.851000", "144935.854000", "144935.857000", "144935.859000", "144935.861000", "144935.864000", "144935.866000", "144935.869000", "144935.871000", "144935.874000", "144935.876000", "144935.879000", "144935.881000", "144935.883000", "144935.886000", "144935.889000", "144935.891000", "144935.893000", "144935.896000", "144935.898000", "144935.901000", "144935.903000", "144935.906000", "144935.908000", "144935.910000", "144935.913000", "144955.836000", "144955.839000", "144955.842000", "144955.844000", "144955.846000", "144955.849000", "144955.851000", "144955.854000", "144955.856000", "144955.859000", "144955.861000", "144955.864000", "144955.866000", "144955.868000", "144955.871000", "144955.873000", "144955.876000", "144955.878000", "144955.881000", "144955.883000", "144955.886000", "144955.888000", "144955.891000", "144955.895000", "144955.897000", "144955.899000", "144955.902000", "144955.905000", "144955.907000", "144955.910000", "144955.912000", "144955.914000", "144955.917000", "145015.837000", "145015.840000", "145015.842000", "145015.845000", "145015.847000", "145015.850000", "145015.852000", "145015.855000", "145015.857000", "145015.859000", "145015.862000", "145015.864000", "145015.867000", "145015.869000", "145015.872000", "145015.874000", "145015.876000", "145015.879000", "145015.881000", "145015.884000", "145015.886000", "145015.889000", "145015.891000", "145015.893000", "145015.896000", "145015.898000", "145015.901000", "145015.903000", "145015.906000", "145015.908000", "145015.910000", "145015.913000", "145015.915000", "145035.837000", "145035.840000", "145035.842000", "145035.845000", "145035.847000", "145035.850000", "145035.852000", "145035.855000", "145035.857000", "145035.860000", "145035.862000", "145035.864000", "145035.867000", "145035.869000", "145035.875000", "145035.877000", "145035.880000", "145035.882000", "145035.885000", "145035.887000", "145035.890000", "145035.892000", "145035.894000", "145035.897000", "145035.899000", "145035.902000", "145035.904000", "145035.907000", "145035.909000", "145035.912000", "145035.914000", "145035.916000", "145035.919000", "145055.837000", "145055.840000", "145055.842000", "145055.845000", "145055.847000", "145055.850000", "145055.852000", "145055.854000", "145055.857000", "145055.859000", "145055.862000", "145055.864000", "145055.866000", "145055.869000", "145055.871000", "145055.874000", "145055.876000", "145055.879000", "145055.881000", "145055.884000", "145055.886000", "145055.888000", "145055.891000", "145055.893000", "145055.896000", "145055.898000", "145055.901000", "145055.903000", "145055.905000", "145055.908000", "145055.910000", "145055.913000", "145055.915000", "145115.836000", "145115.839000", "145115.841000", "145115.844000", "145115.846000", "145115.849000", "145115.851000", "145115.854000", "145115.856000", "145115.859000", "145115.861000", "145115.864000", "145115.866000", "145115.869000", "145115.871000", "145115.873000", "145115.876000", "145115.879000", "145115.881000", "145115.884000", "145115.886000", "145115.889000", "145115.891000", "145115.894000", "145115.896000", "145115.899000", "145115.901000", "145115.904000", "145115.906000", "145115.908000", "145115.911000", "145115.913000", "145135.836000", "145135.839000", "145135.842000", "145135.844000", "145135.846000", "145135.858000", "145135.861000", "145135.863000", "145135.865000", "145135.868000", "145135.870000", "145135.873000", "145135.875000", "145135.878000", "145135.880000", "145135.883000", "145135.885000", "145135.887000", "145135.890000", "145135.892000", "145135.895000", "145135.897000", "145135.900000", "145135.902000", "145135.905000", "145135.907000", "145135.909000", "145135.912000", "145135.914000", "145135.917000", "145135.919000", "145135.922000", "145135.924000", "145147.043000", "145147.046000", "145147.048000", "145147.050000", "145147.053000", "145147.055000", "145147.058000", "145147.060000", "145147.063000", "145147.065000", "145147.068000", "145147.070000", "145147.072000", "145147.075000", "145147.077000", "145147.080000", "145147.082000", "145147.085000", "145147.087000"], "InstanceCreationTime": ["144655.841000", "144655.844000", "144655.847000", "144655.851000", "144655.853000", "144655.856000", "144655.858000", "144655.861000", "144655.863000", "144655.865000", "144655.868000", "144655.870000", "144655.879000", "144655.881000", "144655.883000", "144655.886000", "144655.889000", "144655.891000", "144655.893000", "144655.896000", "144655.898000", "144655.901000", "144655.903000", "144655.905000", "144655.915000", "144655.918000", "144655.920000", "144655.923000", "144655.925000", "144655.927000", "144655.930000", "144655.932000", "144715.837000", "144715.839000", "144715.842000", "144715.844000", "144715.847000", "144715.849000", "144715.852000", "144715.854000", "144715.857000", "144715.859000", "144715.861000", "144715.864000", "144715.866000", "144715.868000", "144715.871000", "144715.873000", "144715.875000", "144715.878000", "144715.880000", "144715.882000", "144715.885000", "144715.887000", "144715.889000", "144715.892000", "144715.894000", "144715.897000", "144715.899000", "144715.901000", "144715.904000", "144715.912000", "144715.915000", "144715.917000", "144715.920000", "144735.836000", "144735.839000", "144735.841000", "144735.844000", "144735.846000", "144735.849000", "144735.851000", "144735.853000", "144735.856000", "144735.858000", "144735.861000", "144735.863000", "144735.866000", "144735.868000", "144735.871000", "144735.873000", "144735.875000", "144735.878000", "144735.880000", "144735.883000", "144735.885000", "144735.887000", "144735.890000", "144735.892000", "144735.895000", "144735.897000", "144735.900000", "144735.902000", "144735.904000", "144735.913000", "144735.915000", "144735.918000", "144735.920000", "144755.837000", "144755.840000", "144755.842000", "144755.845000", "144755.847000", "144755.850000", "144755.852000", "144755.854000", "144755.857000", "144755.860000", "144755.869000", "144755.872000", "144755.874000", "144755.877000", "144755.879000", "144755.882000", "144755.884000", "144755.886000", "144755.889000", "144755.891000", "144755.894000", "144755.896000", "144755.899000", "144755.901000", "144755.904000", "144755.906000", "144755.908000", "144755.911000", "144755.913000", "144755.915000", "144755.918000", "144755.920000", "144815.837000", "144815.840000", "144815.843000", "144815.845000", "144815.847000", "144815.850000", "144815.852000", "144815.856000", "144815.858000", "144815.861000", "144815.863000", "144815.865000", "144815.868000", "144815.870000", "144815.873000", "144815.875000", "144815.877000", "144815.880000", "144815.882000", "144815.885000", "144815.887000", "144815.889000", "144815.892000", "144815.894000", "144815.897000", "144815.899000", "144815.902000", "144815.904000", "144815.907000", "144815.909000", "144815.912000", "144815.914000", "144815.917000", "144835.837000", "144835.840000", "144835.842000", "144835.845000", "144835.847000", "144835.850000", "144835.852000", "144835.855000", "144835.857000", "144835.859000", "144835.862000", "144835.864000", "144835.867000", "144835.869000", "144835.872000", "144835.874000", "144835.876000", "144835.879000", "144835.881000", "144835.883000", "144835.886000", "144835.888000", "144835.891000", "144835.893000", "144835.896000", "144835.898000", "144835.901000", "144835.903000", "144835.906000", "144835.908000", "144835.910000", "144835.913000", "144835.915000", "144855.836000", "144855.839000", "144855.841000", "144855.844000", "144855.846000", "144855.849000", "144855.851000", "144855.853000", "144855.856000", "144855.858000", "144855.861000", "144855.863000", "144855.875000", "144855.877000", "144855.879000", "144855.882000", "144855.885000", "144855.887000", "144855.890000", "144855.892000", "144855.895000", "144855.897000", "144855.900000", "144855.902000", "144855.905000", "144855.907000", "144855.913000", "144855.915000", "144855.918000", "144855.920000", "144855.922000", "144855.925000", "144855.927000", "144915.836000", "144915.839000", "144915.847000", "144915.849000", "144915.852000", "144915.854000", "144915.857000", "144915.859000", "144915.861000", "144915.864000", "144915.866000", "144915.868000", "144915.871000", "144915.873000", "144915.876000", "144915.878000", "144915.881000", "144915.883000", "144915.886000", "144915.888000", "144915.890000", "144915.893000", "144915.895000", "144915.897000", "144915.900000", "144915.902000", "144915.905000", "144915.907000", "144915.910000", "144915.912000", "144915.915000", "144915.917000", "144915.919000", "144935.836000", "144935.839000", "144935.841000", "144935.844000", "144935.847000", "144935.849000", "144935.851000", "144935.854000", "144935.857000", "144935.859000", "144935.861000", "144935.864000", "144935.866000", "144935.869000", "144935.871000", "144935.874000", "144935.876000", "144935.879000", "144935.881000", "144935.883000", "144935.886000", "144935.889000", "144935.891000", "144935.893000", "144935.896000", "144935.898000", "144935.901000", "144935.903000", "144935.906000", "144935.908000", "144935.910000", "144935.913000", "144955.836000", "144955.839000", "144955.842000", "144955.844000", "144955.846000", "144955.849000", "144955.851000", "144955.854000", "144955.856000", "144955.859000", "144955.861000", "144955.864000", "144955.866000", "144955.868000", "144955.871000", "144955.873000", "144955.876000", "144955.878000", "144955.881000", "144955.883000", "144955.886000", "144955.888000", "144955.891000", "144955.895000", "144955.897000", "144955.899000", "1449