{"AcquisitionMatrixPE": 64, "AcquisitionNumber": 1, "AcquisitionTime": "14:22:40.722500", "BandwidthPerPixelPhaseEncode": 28.935, "BaseResolution": 64, "BodyPartExamined": "BRAIN", "CoilCombinationMethod": "Sum of Squares", "ConsistencyInfo": "N4_VE11E_LATEST_20181129", "ConversionSoftware": "dcm2niix", "ConversionSoftwareVersion": "v1.0.20230411", "DerivedVendorReportedEchoSpacing": 0.000540003, "DeviceSerialNumber": "166182", "DwellTime": 3.4e-06, "EchoTime": 0.032, "EchoTrainLength": 64, "EffectiveEchoSpacing": 0.000540003, "FlipAngle": 40, "HeudiconvVersion": "0.13.1", "ImageOrientationPatientDICOM": [0.997618, -0.0129388, -0.0677592, 0.0139303, 0.999802, 0.0141807], "ImageOrientationText": "Tra>Sag(-3.9)>Cor(0.9)", "ImageType": ["ORIGINAL", "PRIMARY", "M", "ND", "NORM", "MOSAIC"], "ImagingFrequency": 123.256296, "InPlanePhaseEncodingDirectionDICOM": "COL", "InstitutionAddress": "PEARSE STREET .,City,District,IE,D2", "InstitutionName": "TCIN", "InstitutionalDepartmentName": "MRI", "MRAcquisitionType": "2D", "MagneticFieldStrength": 3, "Manufacturer": "Siemens", "ManufacturersModelName": "Prisma", "Modality": "MR", "MultibandAccelerationFactor": 4, "NonlinearGradientCorrection": false, "PartialFourier": 1, "PatientPosition": "HFS", "PercentPhaseFOV": 100, "PercentSampling": 100, "PhaseEncodingDirection": "j-", "PhaseEncodingSteps": 64, "PhaseResolution": 1, "PixelBandwidth": 2300, "ProcedureStepDescription": "Rhodri^Head BOLD", "ProtocolName": "cmrr_mbep2d_Pictures_AP_RDS", "PulseSequenceDetails": "%SiemensSeq%\\ep2d_bold", "ReceiveCoilActiveElements": "HC2,4,6,7;SC", "ReceiveCoilName": "SpecialPurpose_4", "ReconMatrixPE": 64, "RefLinesPE": 12, "RepetitionTime": 0.61, "SAR": 0.233715, "ScanOptions": "FS", "ScanningSequence": "EP", "SequenceName": "*epfid2d1_64", "SequenceVariant": "SK", "SeriesDescription": "cmrr_mbep2d_Pictures_AP_RDS", "SeriesNumber": 9, "ShimSetting": [-3715, -7408, 3899, 723, -4, -7, 350, 122], "SliceThickness": 3, "SliceTiming": [0.2625, 0, 0.3275, 0.0675, 0.395, 0.1325, 0.46, 0.1975, 0.525, 0.2625, 0, 0.3275, 0.0675, 0.395, 0.1325, 0.46, 0.1975, 0.525, 0.2625, 0, 0.3275, 0.0675, 0.395, 0.1325, 0.46, 0.1975, 0.525, 0.2625, 0, 0.3275, 0.0675, 0.395, 0.1325, 0.46, 0.1975, 0.525], "SoftwareVersions": "syngo MR E11", "SpacingBetweenSlices": 3.3, "StationName": "AWP166182", "TaskName": "pictures", "TotalReadoutTime": 0.0340202, "TxRefAmp": 230.037, "dcmmeta_affine": [[-2.9928534030914307, 0.04179086163640022, -0.2229558229446411, 98.37601470947266], [0.038816362619400024, 2.9994072914123535, 0.04979962483048439, -100.82977294921875], [-0.20327772200107574, -0.04254201054573059, 3.2920830249786377, -88.93536376953125], [0.0, 0.0, 0.0, 1.0]], "dcmmeta_reorient_transform": [[0.0, -1.0, 0.0, 63.0], [1.0, 0.0, 0.0, 0.0], [0.0, 0.0, 1.0, 0.0], [0.0, 0.0, 0.0, 1.0]], "dcmmeta_shape": [64, 64, 36, 510], "dcmmeta_slice_dim": 2, "dcmmeta_version": 0.6, "global": {"const": {"AcquisitionMatrix": [64, 0, 0, 64], "AngioFlag": "N", "BitsAllocated": 16, "BitsStored": 12, "BodyPartExamined": "BRAIN", "Columns": 384, "EchoNumbers": 1, "EchoTime": 32.0, "EchoTrainLength": 64, "FlipAngle": 40.0, "HighBit": 11, "ImageOrientationPatient": [0.99761779910294, -0.0129387873973, -0.0677592406517, 0.01393028701071, 0.99980240832215, 0.01418067054257], "ImagePositionPatient": [-586.55191871085, -561.82741900323, -65.897799708458], "ImageType": ["ORIGINAL", "PRIMARY", "M", "ND", "NORM", "MOSAIC"], "ImagedNucleus": "1H", "ImagingFrequency": 123.256296, "InPlanePhaseEncodingDirection": "COL", "MRAcquisitionType": "2D", "MagneticFieldStrength": 3.0, "Manufacturer": "SIEMENS", "ManufacturerModelName": "Prisma", "Modality": "MR", "NumberOfAverages": 1.0, "NumberOfPhaseEncodingSteps": 64, "PercentPhaseFieldOfView": 100.0, "PercentSampling": 100.0, "PerformedProcedureStepStartTime": "141133.465000", "PhotometricInterpretation": "MONOCHROME2", "PixelBandwidth": 2300.0, "PixelRepresentation": 0, "PixelSpacing": [3.0, 3.0], "ProtocolName": "cmrr_mbep2d_Pictures_AP_RDS", "RepetitionTime": 610.0, "Rows": 384, "SAR": 0.23371543402114, "SamplesPerPixel": 1, "ScanOptions": "FS", "ScanningSequence": "EP", "SequenceName": "*epfid2d1_64", "SequenceVariant": "SK", "SeriesDescription": "cmrr_mbep2d_Pictures_AP_RDS", "SeriesNumber": 9, "SeriesTime": "142310.492000", "SliceLocation": -96.890121673544, "SliceThickness": 3.0, "SmallestImagePixelValue": 0, "SoftwareVersions": "syngo MR E11", "SpacingBetweenSlices": 3.2999999981458, "SpecificCharacterSet": "ISO_IR 100", "StudyID": "1", "StudyTime": "141133.347000", "TransmitCoilName": "Body", "VariableFlipAngleFlag": "N", "WindowCenterWidthExplanation": "Algo1"}, "slices": {}}, "time": {"samples": {"AcquisitionNumber": [1, 2, 3, 4, 5, 6, 7, 8, 9, 10, 11, 12, 13, 14, 15, 16, 17, 18, 19, 20, 21, 22, 23, 24, 25, 26, 27, 28, 29, 30, 31, 32, 33, 34, 35, 36, 37, 38, 39, 40, 41, 42, 43, 44, 45, 46, 47, 48, 49, 50, 51, 52, 53, 54, 55, 56, 57, 58, 59, 60, 61, 62, 63, 64, 65, 66, 67, 68, 69, 70, 71, 72, 73, 74, 75, 76, 77, 78, 79, 80, 81, 82, 83, 84, 85, 86, 87, 88, 89, 90, 91, 92, 93, 94, 95, 96, 97, 98, 99, 100, 101, 102, 103, 104, 105, 106, 107, 108, 109, 110, 111, 112, 113, 114, 115, 116, 117, 118, 119, 120, 121, 122, 123, 124, 125, 126, 127, 128, 129, 130, 131, 132, 133, 134, 135, 136, 137, 138, 139, 140, 141, 142, 143, 144, 145, 146, 147, 148, 149, 150, 151, 152, 153, 154, 155, 156, 157, 158, 159, 160, 161, 162, 163, 164, 165, 166, 167, 168, 169, 170, 171, 172, 173, 174, 175, 176, 177, 178, 179, 180, 181, 182, 183, 184, 185, 186, 187, 188, 189, 190, 191, 192, 193, 194, 195, 196, 197, 198, 199, 200, 201, 202, 203, 204, 205, 206, 207, 208, 209, 210, 211, 212, 213, 214, 215, 216, 217, 218, 219, 220, 221, 222, 223, 224, 225, 226, 227, 228, 229, 230, 231, 232, 233, 234, 235, 236, 237, 238, 239, 240, 241, 242, 243, 244, 245, 246, 247, 248, 249, 250, 251, 252, 253, 254, 255, 256, 257, 258, 259, 260, 261, 262, 263, 264, 265, 266, 267, 268, 269, 270, 271, 272, 273, 274, 275, 276, 277, 278, 279, 280, 281, 282, 283, 284, 285, 286, 287, 288, 289, 290, 291, 292, 293, 294, 295, 296, 297, 298, 299, 300, 301, 302, 303, 304, 305, 306, 307, 308, 309, 310, 311, 312, 313, 314, 315, 316, 317, 318, 319, 320, 321, 322, 323, 324, 325, 326, 327, 328, 329, 330, 331, 332, 333, 334, 335, 336, 337, 338, 339, 340, 341, 342, 343, 344, 345, 346, 347, 348, 349, 350, 351, 352, 353, 354, 355, 356, 357, 358, 359, 360, 361, 362, 363, 364, 365, 366, 367, 368, 369, 370, 371, 372, 373, 374, 375, 376, 377, 378, 379, 380, 381, 382, 383, 384, 385, 386, 387, 388, 389, 390, 391, 392, 393, 394, 395, 396, 397, 398, 399, 400, 401, 402, 403, 404, 405, 406, 407, 408, 409, 410, 411, 412, 413, 414, 415, 416, 417, 418, 419, 420, 421, 422, 423, 424, 425, 426, 427, 428, 429, 430, 431, 432, 433, 434, 435, 436, 437, 438, 439, 440, 441, 442, 443, 444, 445, 446, 447, 448, 449, 450, 451, 452, 453, 454, 455, 456, 457, 458, 459, 460, 461, 462, 463, 464, 465, 466, 467, 468, 469, 470, 471, 472, 473, 474, 475, 476, 477, 478, 479, 480, 481, 482, 483, 484, 485, 486, 487, 488, 489, 490, 491, 492, 493, 494, 495, 496, 497, 498, 499, 500, 501, 502, 503, 504, 505, 506, 507, 508, 509, 510], "AcquisitionTime": ["142240.722500", "142241.332500", "142241.942500", "142242.552500", "142243.162500", "142243.772500", "142244.382500", "142244.992500", "142245.602500", "142246.212500", "142246.822500", "142247.432500", "142248.042500", "142248.652500", "142249.262500", "142249.872500", "142250.482500", "142251.092500", "142251.702500", "142252.312500", "142252.922500", "142253.532500", "142254.142500", "142254.752500", "142255.362500", "142255.972500", "142256.582500", "142257.192500", "142257.802500", "142258.412500", "142259.022500", "142259.632500", "142300.242500", "142300.852500", "142301.462500", "142302.072500", "142302.682500", "142303.292500", "142303.902500", "142304.512500", "142305.122500", "142305.732500", "142306.342500", "142306.952500", "142307.562500", "142308.172500", "142308.782500", "142309.392500", "142310.002500", "142310.612500", "142311.222500", "142311.832500", "142312.442500", "142313.052500", "142313.662500", "142314.272500", "142314.882500", "142315.492500", "142316.102500", "142316.712500", "142317.322500", "142317.932500", "142318.542500", "142319.152500", "142319.762500", "142320.372500", "142320.982500", "142321.592500", "142322.202500", "142322.812500", "142323.422500", "142324.032500", "142324.642500", "142325.252500", "142325.862500", "142326.472500", "142327.082500", "142327.692500", "142328.302500", "142328.912500", "142329.522500", "142330.132500", "142330.742500", "142331.352500", "142331.962500", "142332.572500", "142333.182500", "142333.792500", "142334.402500", "142335.012500", "142335.622500", "142336.232500", "142336.842500", "142337.452500", "142338.062500", "142338.672500", "142339.282500", "142339.892500", "142340.502500", "142341.112500", "142341.722500", "142342.332500", "142342.942500", "142343.552500", "142344.162500", "142344.772500", "142345.382500", "142345.992500", "142346.602500", "142347.212500", "142347.822500", "142348.432500", "142349.042500", "142349.652500", "142350.262500", "142350.872500", "142351.482500", "142352.092500", "142352.702500", "142353.312500", "142353.922500", "142354.532500", "142355.142500", "142355.752500", "142356.362500", "142356.972500", "142357.582500", "142358.192500", "142358.802500", "142359.412500", "142400.022500", "142400.632500", "142401.242500", "142401.852500", "142402.462500", "142403.072500", "142403.682500", "142404.292500", "142404.902500", "142405.512500", "142406.122500", "142406.732500", "142407.342500", "142407.952500", "142408.562500", "142409.172500", "142409.782500", "142410.392500", "142411.002500", "142411.612500", "142412.222500", "142412.832500", "142413.442500", "142414.052500", "142414.662500", "142415.272500", "142415.882500", "142416.492500", "142417.102500", "142417.712500", "142418.322500", "142418.932500", "142419.542500", "142420.152500", "142420.762500", "142421.372500", "142421.982500", "142422.592500", "142423.202500", "142423.812500", "142424.422500", "142425.032500", "142425.642500", "142426.252500", "142426.862500", "142427.472500", "142428.082500", "142428.692500", "142429.302500", "142429.912500", "142430.522500", "142431.132500", "142431.742500", "142432.352500", "142432.962500", "142433.572500", "142434.182500", "142434.792500", "142435.402500", "142436.012500", "142436.622500", "142437.232500", "142437.842500", "142438.452500", "142439.062500", "142439.672500", "142440.282500", "142440.892500", "142441.502500", "142442.112500", "142442.722500", "142443.332500", "142443.942500", "142444.552500", "142445.162500", "142445.772500", "142446.382500", "142446.992500", "142447.602500", "142448.212500", "142448.822500", "142449.432500", "142450.042500", "142450.652500", "142451.262500", "142451.872500", "142452.482500", "142453.092500", "142453.702500", "142454.312500", "142454.922500", "142455.532500", "142456.142500", "142456.752500", "142457.362500", "142457.972500", "142458.582500", "142459.192500", "142459.802500", "142500.412500", "142501.022500", "142501.632500", "142502.242500", "142502.852500", "142503.462500", "142504.072500", "142504.682500", "142505.292500", "142505.902500", "142506.512500", "142507.122500", "142507.732500", "142508.342500", "142508.952500", "142509.562500", "142510.172500", "142510.782500", "142511.392500", "142512.002500", "142512.612500", "142513.222500", "142513.832500", "142514.442500", "142515.052500", "142515.662500", "142516.272500", "142516.882500", "142517.492500", "142518.102500", "142518.712500", "142519.322500", "142519.932500", "142520.542500", "142521.152500", "142521.762500", "142522.372500", "142522.982500", "142523.592500", "142524.202500", "142524.812500", "142525.422500", "142526.032500", "142526.642500", "142527.252500", "142527.862500", "142528.472500", "142529.082500", "142529.692500", "142530.302500", "142530.912500", "142531.522500", "142532.132500", "142532.742500", "142533.352500", "142533.962500", "142534.572500", "142535.182500", "142535.792500", "142536.402500", "142537.012500", "142537.622500", "142538.232500", "142538.842500", "142539.452500", "142540.062500", "142540.672500", "142541.282500", "142541.892500", "142542.502500", "142543.112500", "142543.722500", "142544.332500", "142544.942500", "142545.552500", "142546.162500", "142546.772500", "142547.382500", "142547.992500", "142548.602500", "142549.212500", "142549.822500", "142550.432500", "142551.042500", "142551.652500", "142552.262500", "142552.872500", "142553.482500", "142554.092500", "142554.702500", "142555.312500", "142555.922500", "142556.532500", "142557.142500", "142557.752500", "142558.362500", "142558.972500", "142559.582500", "142600.192500", "142600.802500", "142601.412500", "142602.022500", "142602.632500", "142603.242500", "142603.852500", "142604.462500", "142605.072500", "142605.682500", "142606.292500", "142606.902500", "142607.512500", "142608.122500", "142608.732500", "142609.342500", "142609.952500", "142610.562500", "142611.172500", "142611.782500", "142612.392500", "142613.002500", "142613.612500", "142614.222500", "142614.832500", "142615.442500", "142616.052500", "142616.662500", "142617.272500", "142617.882500", "142618.492500", "142619.102500", "142619.712500", "142620.322500", "142620.932500", "142621.542500", "142622.152500", "142622.762500", "142623.372500", "142623.982500", "142624.592500", "142625.202500", "142625.812500", "142626.422500", "142627.032500", "142627.642500", "142628.252500", "142628.862500", "142629.472500", "142630.082500", "142630.692500", "142631.302500", "142631.912500", "142632.522500", "142633.132500", "142633.742500", "142634.352500", "142634.962500", "142635.572500", "142636.182500", "142636.792500", "142637.402500", "142638.012500", "142638.622500", "142639.232500", "142639.842500", "142640.452500", "142641.062500", "142641.672500", "142642.282500", "142642.892500", "142643.502500", "142644.112500", "142644.722500", "142645.332500", "142645.942500", "142646.552500", "142647.162500", "142647.772500", "142648.382500", "142648.992500", "142649.602500", "142650.212500", "142650.822500", "142651.432500", "142652.042500", "142652.652500", "142653.262500", "142653.872500", "142654.482500", "142655.092500", "142655.702500", "142656.312500", "142656.922500", "142657.532500", "142658.142500", "142658.752500", "142659.362500", "142659.972500", "142700.582500", "142701.192500", "142701.802500", "142702.412500", "142703.022500", "142703.632500", "142704.242500", "142704.852500", "142705.462500", "142706.072500", "142706.682500", "142707.292500", "142707.902500", "142708.512500", "142709.122500", "142709.732500", "142710.342500", "142710.952500", "142711.562500", "142712.172500", "142712.782500", "142713.392500", "142714.002500", "142714.612500", "142715.222500", "142715.832500", "142716.442500", "142717.052500", "142717.662500", "142718.272500", "142718.882500", "142719.492500", "142720.102500", "142720.712500", "142721.322500", "142721.932500", "142722.542500", "142723.152500", "142723.762500", "142724.372500", "142724.982500", "142725.592500", "142726.202500", "142726.812500", "142727.422500", "142728.032500", "142728.642500", "142729.252500", "142729.862500", "142730.472500", "142731.082500", "142731.692500", "142732.302500", "142732.912500", "142733.522500", "142734.132500", "142734.742500", "142735.352500", "142735.962500", "142736.572500", "142737.182500", "142737.792500", "142738.402500", "142739.012500", "142739.622500", "142740.232500", "142740.842500", "142741.452500", "142742.062500", "142742.672500", "142743.282500", "142743.892500", "142744.502500", "142745.112500", "142745.722500", "142746.332500", "142746.942500", "142747.552500", "142748.162500", "142748.772500", "142749.382500", "142749.992500", "142750.602500", "142751.212500"], "ContentTime": ["142310.495000", "142310.499000", "142310.504000", "142310.507000", "142310.509000", "142310.512000", "142310.521000", "142310.524000", "142310.526000", "142310.528000", "142310.531000", "142310.533000", "142310.536000", "142310.538000", "142310.540000", "142310.543000", "142310.545000", "142310.548000", "142310.550000", "142310.564000", "142310.567000", "142310.569000", "142310.571000", "142310.574000", "142310.576000", "142310.579000", "142310.581000", "142310.584000", "142310.586000", "142310.588000", "142310.591000", "142310.593000", "142310.595000", "142310.598000", "142310.600000", "142310.603000", "142310.605000", "142310.616000", "142310.619000", "142310.621000", "142310.624000", "142310.626000", "142310.629000", "142310.631000", "142310.633000", "142310.636000", "142310.638000", "142330.491000", "142330.493000", "142330.496000", "142330.498000", "142330.500000", "142330.503000", "142330.505000", "142330.508000", "142330.510000", "142330.513000", "142330.515000", "142330.518000", "142330.520000", "142330.522000", "142330.525000", "142330.527000", "142330.529000", "142330.533000", "142330.535000", "142330.538000", "142330.540000", "142330.543000", "142330.545000", "142330.548000", "142330.550000", "142330.552000", "142330.555000", "142330.557000", "142330.559000", "142330.562000", "142330.564000", "142330.567000", "142330.573000", "142350.490000", "142350.493000", "142350.495000", "142350.498000", "142350.500000", "142350.503000", "142350.505000", "142350.507000", "142350.510000", "142350.512000", "142350.515000", "142350.517000", "142350.520000", "142350.522000", "142350.524000", "142350.527000", "142350.529000", "142350.531000", "142350.534000", "142350.536000", "142350.539000", "142350.541000", "142350.543000", "142350.546000", "142350.548000", "142350.551000", "142350.553000", "142350.555000", "142350.558000", "142350.560000", "142350.563000", "142350.565000", "142350.568000", "142410.490000", "142410.493000", "142410.495000", "142410.498000", "142410.500000", "142410.502000", "142410.505000", "142410.507000", "142410.509000", "142410.512000", "142410.514000", "142410.517000", "142410.519000", "142410.522000", "142410.524000", "142410.526000", "142410.529000", "142410.531000", "142410.534000", "142410.536000", "142410.538000", "142410.541000", "142410.543000", "142410.545000", "142410.548000", "142410.550000", "142410.553000", "142410.555000", "142410.557000", "142410.560000", "142410.562000", "142410.565000", "142410.567000", "142430.491000", "142430.494000", "142430.496000", "142430.499000", "142430.501000", "142430.503000", "142430.506000", "142430.508000", "142430.510000", "142430.513000", "142430.515000", "142430.518000", "142430.520000", "142430.523000", "142430.525000", "142430.527000", "142430.530000", "142430.532000", "142430.534000", "142430.537000", "142430.539000", "142430.542000", "142430.544000", "142430.546000", "142430.549000", "142430.551000", "142430.554000", "142430.556000", "142430.558000", "142430.561000", "142430.563000", "142430.566000", "142430.568000", "142450.490000", "142450.493000", "142450.496000", "142450.498000", "142450.501000", "142450.503000", "142450.505000", "142450.508000", "142450.510000", "142450.513000", "142450.515000", "142450.517000", "142450.520000", "142450.522000", "142450.525000", "142450.527000", "142450.529000", "142450.532000", "142450.534000", "142450.537000", "142450.539000", "142450.541000", "142450.544000", "142450.546000", "142450.549000", "142450.551000", "142450.553000", "142450.556000", "142450.558000", "142450.561000", "142450.563000", "142450.565000", "142510.490000", "142510.493000", "142510.495000", "142510.498000", "142510.500000", "142510.502000", "142510.505000", "142510.507000", "142510.510000", "142510.512000", "142510.514000", "142510.517000", "142510.519000", "142510.522000", "142510.524000", "142510.527000", "142510.529000", "142510.531000", "142510.534000", "142510.536000", "142510.539000", "142510.541000", "142510.544000", "142510.546000", "142510.548000", "142510.551000", "142510.553000", "142510.556000", "142510.558000", "142510.560000", "142510.563000", "142510.565000", "142510.568000", "142530.490000", "142530.493000", "142530.495000", "142530.498000", "142530.500000", "142530.503000", "142530.505000", "142530.508000", "142530.510000", "142530.512000", "142530.515000", "142530.517000", "142530.520000", "142530.522000", "142530.525000", "142530.527000", "142530.529000", "142530.532000", "142530.534000", "142530.537000", "142530.539000", "142530.541000", "142530.544000", "142530.546000", "142530.548000", "142530.551000", "142530.553000", "142530.556000", "142530.558000", "142530.561000", "142530.563000", "142530.565000", "142530.568000", "142550.490000", "142550.493000", "142550.495000", "142550.497000", "142550.500000", "142550.503000", "142550.505000", "142550.507000", "142550.510000", "142550.512000", "142550.515000", "142550.517000", "142550.520000", "142550.522000", "142550.524000", "142550.527000", "142550.529000", "142550.542000", "142550.545000", "142550.547000", "142550.550000", "142550.552000", "142550.554000", "142550.557000", "142550.559000", "142550.562000", "142550.564000", "142550.566000", "142550.569000", "142550.571000", "142550.574000", "142550.576000", "142550.579000", "142610.490000", "142610.493000", "142610.495000", "142610.498000", "142610.500000", "142610.503000", "142610.505000", "142610.508000", "142610.510000", "142610.513000", "142610.516000", "142610.518000", "142610.521000", "142610.523000", "142610.525000", "142610.528000", "142610.530000", "142610.533000", "142610.535000", "142610.537000", "142610.540000", "142610.542000", "142610.545000", "142610.547000", "142610.550000", "142610.552000", "142610.555000", "142610.557000", "142610.559000", "142610.562000", "142610.564000", "142610.566000", "142630.490000", "142630.493000", "142630.495000", "142630.498000", "142630.500000", "142630.503000", "142630.505000", "142630.507000", "142630.510000", "142630.513000", "142630.515000", "142630.517000", "142630.520000", "142630.522000", "142630.525000", "142630.527000", "142630.529000", "142630.532000", "142630.534000", "142630.537000", "142630.539000", "142630.542000", "142630.544000", "142630.546000", "142630.549000", "142630.551000", "142630.554000", "142630.556000", "142630.558000", "142630.561000", "142630.563000", "142630.566000", "142630.568000", "142650.491000", "142650.494000", "142650.496000", "142650.499000", "142650.501000", "142650.504000", "142650.506000", "142650.509000", "142650.511000", "142650.513000", "142650.516000", "142650.518000", "142650.521000", "142650.523000", "142650.525000", "142650.528000", "142650.530000", "142650.533000", "142650.535000", "142650.538000", "142650.540000", "142650.542000", "142650.545000", "142650.547000", "142650.550000", "142650.552000", "142650.555000", "142650.557000", "142650.559000", "142650.562000", "142650.564000", "142650.566000", "142650.569000", "142710.490000", "142710.493000", "142710.495000", "142710.498000", "142710.500000", "142710.502000", "142710.505000", "142710.507000", "142710.510000", "142710.512000", "142710.515000", "142710.517000", "142710.523000", "142710.525000", "142710.528000", "142710.530000", "142710.533000", "142710.535000", "142710.537000", "142710.540000", "142710.542000", "142710.545000", "142710.547000", "142710.550000", "142710.552000", "142710.555000", "142710.557000", "142710.560000", "142710.562000", "142710.564000", "142710.567000", "142710.569000", "142710.572000", "142730.490000", "142730.493000", "142730.495000", "142730.498000", "142730.500000", "142730.503000", "142730.505000", "142730.507000", "142730.510000", "142730.512000", "142730.515000", "142730.517000", "142730.520000", "142730.522000", "142730.524000", "142730.527000", "142730.529000", "142730.532000", "142730.534000", "142730.537000", "142730.539000", "142730.541000", "142730.544000", "142730.546000", "142730.549000", "142730.551000", "142730.554000", "142730.556000", "142730.559000", "142730.561000", "142730.563000", "142730.566000", "142730.568000", "142750.491000", "142750.493000", "142750.496000", "142750.499000", "142750.501000", "142750.503000", "142750.506000", "142750.508000", "142750.511000", "142750.513000", "142750.516000", "142750.518000", "142750.520000", "142750.523000", "142750.525000", "142750.528000", "142750.530000", "142750.533000", "142750.535000", "142750.538000", "142750.540000", "142750.542000", "142750.545000", "142750.547000", "142750.550000", "142750.552000", "142750.555000", "142750.557000", "142750.560000", "142750.563000", "142750.565000", "142750.567000", "142752.350000", "142752.353000", "142752.356000", "142752.358000"], "InstanceCreationTime": ["142310.495000", "142310.499000", "142310.504000", "142310.507000", "142310.509000", "142310.512000", "142310.521000", "142310.524000", "142310.526000", "142310.528000", "142310.531000", "142310.533000", "142310.536000", "142310.538000", "142310.540000", "142310.543000", "142310.545000", "142310.548000", "142310.550000", "142310.564000", "142310.567000", "142310.569000", "142310.571000", "142310.574000", "142310.576000", "142310.579000", "142310.581000", "142310.584000", "142310.586000", "142310.588000", "142310.591000", "142310.593000", "142310.595000", "142310.598000", "142310.600000", "142310.603000", "142310.605000", "142310.616000", "142310.619000", "142310.621000", "142310.624000", "142310.626000", "142310.629000", "142310.631000", "142310.633000", "142310.636000", "142310.638000", "142330.491000", "142330.493000", "142330.496000", "142330.498000", "142330.500000", "142330.503000", "142330.505000", "142330.508000", "142330.510000", "142330.513000", "142330.515000", "142330.518000", "142330.520000", "142330.522000", "142330.525000", "142330.527000", "142330.529000", "142330.533000", "142330.535000", "142330.538000", "142330.540000", "142330.543000", "142330.545000", "142330.548000", "142330.550000", "142330.552000", "142330.555000", "142330.557000", "142330.559000", "142330.562000", "142330.564000", "142330.567000", "142330.573000", "142350.490000", "142350.493000", "142350.495000", "142350.498000", "142350.500000", "142350.503000", "142350.505000", "142350.507000", "142350.510000", "142350.512000", "142350.515000", "142350.517000", "142350.520000", "142350.522000", "142350.524000", "142350.527000", "142350.529000", "142350.531000", "142350.534000", "142350.536000", "142350.539000", "142350.541000", "142350.543000", "142350.546000", "142350.548000", "142350.551000", "142350.553000", "142350.555000", "142350.558000", "142350.560000", "142350.563000", "142350.565000", "142350.568000", "142410.490000", "142410.493000", "142410.495000", "142410.498000", "142410.500000", "142410.502000", "142410.505000", "142410.507000", "142410.509000", "142410.512000", "142410.514000", "142410.517000", "142410.519000", "142410.522000", "142410.524000", "142410.526000", "142410.529000", "142410.531000", "142410.534000", "142410.536000", "142410.538000", "142410.541000", "142410.543000", "142410.545000", "142410.548000", "142410.550000", "142410.553000", "142410.555000", "142410.557000", "142410.560000", "142410.562000", "142410.565000", "142410.567000", "142430.491000", "142430.494000", "142430.496000", "142430.499000", "142430.501000", "142430.503000", "142430.506000", "142430.508000", "142430.510000", "142430.513000", "142430.515000", "142430.518000", "142430.520000", "142430.523000", "142430.525000", "142430.527000", "142430.530000", "142430.532000", "142430.534000", "142430.537000", "142430.539000", "142430.542000", "142430.544000", "142430.546000", "142430.549000", "142430.551000", "142430.554000", "142430.556000", "142430.558000", "142430.561000", "142430.563000", "142430.566000", "142430.568000", "142450.490000", "142450.493000", "142450.496000", "142450.498000", "142450.501000", "142450.503000", "142450.505000", "142450.508000", "142450.510000", "142450.513000", "142450.515000", "142450.517000", "142450.520000", "142450.522000", "142450.525000", "142450.527000", "142450.529000", "142450.532000", "142450.534000", "142450.537000", "142450.539000", "142450.541000", "142450.544000", "142450.546000", "142450.549000", "142450.551000", "142450.553000", "142450.556000", "142450.558000", "142450.561000", "142450.563000", "142450.565000", "142510.490000", "142510.493000", "142510.495000", "142510.498000", "142510.500000", "142510.502000", "142510.505000", "142510.507000", "142510.510000", "142510.512000", "142510.514000", "142510.517000", "142510.519000", "142510.522000", "142510.524000", "142510.527000", "142510.529000", "142510.531000", "142510.534000", "142510.536000", "142510.539000", "142510.541000", "142510.544000", "142510.546000", "142510.548000", "142510.551000", "142510.553000", "142510.556000", "142510.558000", "142510.560000", "142510.563000", "142510.565000", "142510.568000", "142530.490000", "142530.493000", "142530.495000", "142530.498000", "142530.500000", "142530.503000", "142530.505000", "142530.508000", "142530.510000", "142530.512000", "142530.515000", "142530.517000", "142530.520000", "142530.522000", "142530.525000", "142530.527000", "142530.529000", "142530.532000", "142530.534000", "142530.537000", "142530.539000", "142530.541000", "142530.544000", "142530.546000", "142530.548000", "142530.551000", "142530.553000", "142530.556000", "142530.558000", "142530.561000", "142530.563000", "142530.565000", "142530.568000", "142550.490000", "142550.493000", "142550.495000", "142550.497000", "142550.500000", "142550.503000", "142550.505000", "142550.507000", "142550.510000", "142550.512000", "142550.515000", "142550.517000", "142550.520000", "142550.522000", "142550.524000", "142550.527000", "142550.529000", "142550.542000", "142550.545000", "142550.547000", "142550.550000", "142550.552000", "142550.554000", "142550.557000", "142550.559000", "142550.562000", "142550.564000", "142550.566000", "142550.569000", "142550.571000", "142550.574000", "142550.576000", "142550.579000", "142610.490000", "142610.493000", "142610.495000", "142610.498000", "142610.500000", "142610.503000", "142610.505000", "142610.508000", "142610.510000", "142610