{"AcquisitionMatrixPE": 64, "AcquisitionNumber": 1, "AcquisitionTime": "14:40:12.720000", "BandwidthPerPixelPhaseEncode": 28.935, "BaseResolution": 64, "BodyPartExamined": "BRAIN", "CoilString": "HC2_4_6_7;SC", "ConsistencyInfo": "N4_VE11E_LATEST_20181129", "ConversionSoftware": "dcm2niix", "ConversionSoftwareVersion": "v1.0.20190902", "DerivedVendorReportedEchoSpacing": 0.000540003, "DeviceSerialNumber": "166182", "DwellTime": 3.4e-06, "EchoTime": 0.032, "EchoTrainLength": 64, "EffectiveEchoSpacing": 0.000540003, "FlipAngle": 40, "ImageOrientationPatientDICOM": [0.998129, 0.0537411, -0.0291598, -0.0507377, 0.99414, 0.0954555], "ImageType": ["ORIGINAL", "PRIMARY", "M", "ND", "NORM", "MOSAIC"], "ImagingFrequency": 123.256, "InPlanePhaseEncodingDirectionDICOM": "COL", "InstitutionAddress": "PEARSE_STREET_._City_District_IE_D2", "InstitutionName": "TCIN", "InstitutionalDepartmentName": "MRI", "MRAcquisitionType": "2D", "MagneticFieldStrength": 3, "Manufacturer": "Siemens", "ManufacturersModelName": "Prisma", "Modality": "MR", "MultibandAccelerationFactor": 4, "PartialFourier": 1, "PatientPosition": "HFS", "PercentPhaseFOV": 100, "PhaseEncodingDirection": "j-", "PhaseEncodingSteps": 64, "PhaseResolution": 1, "PixelBandwidth": 2300, "ProcedureStepDescription": "Rhodri_Head_BOLD", "ProtocolName": "cmrr_mbep2d_Pictures_AP_RDS", "PulseSequenceDetails": "%SiemensSeq%_ep2d_bold", "ReceiveCoilActiveElements": "HC2,4,6,7;SC", "ReceiveCoilName": "SpecialPurpose_4", "ReconMatrixPE": 64, "RefLinesPE": 12, "RepetitionTime": 0.61, "SAR": 0.211292, "ScanOptions": "FS", "ScanningSequence": "EP", "SequenceName": "_epfid2d1_64", "SequenceVariant": "SK", "SeriesDescription": "cmrr_mbep2d_Pictures_AP_RDS", "SeriesNumber": 8, "ShimSetting": [-3565, -7611, 3864, 1162, 179, -16, 780, -58], "SliceThickness": 3, "SliceTiming": [0.2625, 0, 0.3275, 0.0675, 0.395, 0.1325, 0.46, 0.1975, 0.525, 0.2625, 0, 0.3275, 0.0675, 0.395, 0.1325, 0.46, 0.1975, 0.525, 0.2625, 0, 0.3275, 0.0675, 0.395, 0.1325, 0.46, 0.1975, 0.525, 0.2625, 0, 0.3275, 0.0675, 0.395, 0.1325, 0.46, 0.1975, 0.525], "SoftwareVersions": "syngo_MR_E11", "SpacingBetweenSlices": 3.3, "StationName": "AWP166182", "TaskName": "pictures", "TotalReadoutTime": 0.0340202, "TxRefAmp": 227.335, "dcmmeta_affine": [[-2.994387149810791, -0.15221302211284637, -0.11259205639362335, 105.95487976074219], [-0.16122344136238098, 2.982419490814209, 0.309531569480896, -95.90837860107422], [-0.08747939020395279, -0.28636661171913147, 3.2835214138031006, -67.81653594970703], [0.0, 0.0, 0.0, 1.0]], "dcmmeta_reorient_transform": [[0.0, -1.0, 0.0, 63.0], [1.0, 0.0, 0.0, 0.0], [0.0, 0.0, 1.0, 0.0], [0.0, 0.0, 0.0, 1.0]], "dcmmeta_shape": [64, 64, 36, 510], "dcmmeta_slice_dim": 2, "dcmmeta_version": 0.6, "global": {"const": {"AcquisitionMatrix": [64, 0, 0, 64], "AngioFlag": "N", "BitsAllocated": 16, "BitsStored": 12, "BodyPartExamined": "BRAIN", "Columns": 384, "EchoNumbers": 1, "EchoTime": 32.0, "EchoTrainLength": 64, "FlipAngle": 40.0, "HighBit": 11, "ImageOrientationPatient": [0.99812904750309, 0.05374114549617, -0.0291597978617, -0.0507376748404, 0.99413979323752, 0.09545553862113], "ImagePositionPatient": [-551.11331705586, -594.96689572434, -117.67958703386], "ImageType": ["ORIGINAL", "PRIMARY", "M", "ND", "NORM", "MOSAIC"], "ImagedNucleus": "1H", "ImagingFrequency": 123.256418, "InPlanePhaseEncodingDirection": "COL", "MRAcquisitionType": "2D", "MagneticFieldStrength": 3.0, "Manufacturer": "SIEMENS", "ManufacturerModelName": "Prisma", "Modality": "MR", "NumberOfAverages": 1.0, "NumberOfPhaseEncodingSteps": 64, "PercentPhaseFieldOfView": 100.0, "PercentSampling": 100.0, "PerformedProcedureStepStartTime": "142613.502000", "PhotometricInterpretation": "MONOCHROME2", "PixelBandwidth": 2300.0, "PixelRepresentation": 0, "PixelSpacing": [3.0, 3.0], "ProtocolName": "cmrr_mbep2d_Pictures_AP_RDS", "RepetitionTime": 610.0, "Rows": 384, "SAR": 0.21129213731253, "SamplesPerPixel": 1, "ScanOptions": "FS", "ScanningSequence": "EP", "SequenceName": "*epfid2d1_64", "SequenceVariant": "SK", "SeriesDescription": "cmrr_mbep2d_Pictures_AP_RDS", "SeriesNumber": 8, "SeriesTime": "144028.265000", "SliceLocation": -80.088907729114, "SliceThickness": 3.0, "SmallestImagePixelValue": 0, "SoftwareVersions": "syngo MR E11", "SpacingBetweenSlices": 3.300000018503, "SpecificCharacterSet": "ISO_IR 100", "StudyID": "1", "StudyTime": "142613.415000", "TransmitCoilName": "Body", "VariableFlipAngleFlag": "N", "WindowCenterWidthExplanation": "Algo1"}, "slices": {}}, "time": {"samples": {"AcquisitionNumber": [1, 2, 3, 4, 5, 6, 7, 8, 9, 10, 11, 12, 13, 14, 15, 16, 17, 18, 19, 20, 21, 22, 23, 24, 25, 26, 27, 28, 29, 30, 31, 32, 33, 34, 35, 36, 37, 38, 39, 40, 41, 42, 43, 44, 45, 46, 47, 48, 49, 50, 51, 52, 53, 54, 55, 56, 57, 58, 59, 60, 61, 62, 63, 64, 65, 66, 67, 68, 69, 70, 71, 72, 73, 74, 75, 76, 77, 78, 79, 80, 81, 82, 83, 84, 85, 86, 87, 88, 89, 90, 91, 92, 93, 94, 95, 96, 97, 98, 99, 100, 101, 102, 103, 104, 105, 106, 107, 108, 109, 110, 111, 112, 113, 114, 115, 116, 117, 118, 119, 120, 121, 122, 123, 124, 125, 126, 127, 128, 129, 130, 131, 132, 133, 134, 135, 136, 137, 138, 139, 140, 141, 142, 143, 144, 145, 146, 147, 148, 149, 150, 151, 152, 153, 154, 155, 156, 157, 158, 159, 160, 161, 162, 163, 164, 165, 166, 167, 168, 169, 170, 171, 172, 173, 174, 175, 176, 177, 178, 179, 180, 181, 182, 183, 184, 185, 186, 187, 188, 189, 190, 191, 192, 193, 194, 195, 196, 197, 198, 199, 200, 201, 202, 203, 204, 205, 206, 207, 208, 209, 210, 211, 212, 213, 214, 215, 216, 217, 218, 219, 220, 221, 222, 223, 224, 225, 226, 227, 228, 229, 230, 231, 232, 233, 234, 235, 236, 237, 238, 239, 240, 241, 242, 243, 244, 245, 246, 247, 248, 249, 250, 251, 252, 253, 254, 255, 256, 257, 258, 259, 260, 261, 262, 263, 264, 265, 266, 267, 268, 269, 270, 271, 272, 273, 274, 275, 276, 277, 278, 279, 280, 281, 282, 283, 284, 285, 286, 287, 288, 289, 290, 291, 292, 293, 294, 295, 296, 297, 298, 299, 300, 301, 302, 303, 304, 305, 306, 307, 308, 309, 310, 311, 312, 313, 314, 315, 316, 317, 318, 319, 320, 321, 322, 323, 324, 325, 326, 327, 328, 329, 330, 331, 332, 333, 334, 335, 336, 337, 338, 339, 340, 341, 342, 343, 344, 345, 346, 347, 348, 349, 350, 351, 352, 353, 354, 355, 356, 357, 358, 359, 360, 361, 362, 363, 364, 365, 366, 367, 368, 369, 370, 371, 372, 373, 374, 375, 376, 377, 378, 379, 380, 381, 382, 383, 384, 385, 386, 387, 388, 389, 390, 391, 392, 393, 394, 395, 396, 397, 398, 399, 400, 401, 402, 403, 404, 405, 406, 407, 408, 409, 410, 411, 412, 413, 414, 415, 416, 417, 418, 419, 420, 421, 422, 423, 424, 425, 426, 427, 428, 429, 430, 431, 432, 433, 434, 435, 436, 437, 438, 439, 440, 441, 442, 443, 444, 445, 446, 447, 448, 449, 450, 451, 452, 453, 454, 455, 456, 457, 458, 459, 460, 461, 462, 463, 464, 465, 466, 467, 468, 469, 470, 471, 472, 473, 474, 475, 476, 477, 478, 479, 480, 481, 482, 483, 484, 485, 486, 487, 488, 489, 490, 491, 492, 493, 494, 495, 496, 497, 498, 499, 500, 501, 502, 503, 504, 505, 506, 507, 508, 509, 510], "AcquisitionTime": ["144012.720000", "144013.330000", "144013.940000", "144014.550000", "144015.160000", "144015.770000", "144016.380000", "144016.990000", "144017.600000", "144018.210000", "144018.820000", "144019.430000", "144020.040000", "144020.650000", "144021.260000", "144021.870000", "144022.480000", "144023.090000", "144023.700000", "144024.310000", "144024.920000", "144025.530000", "144026.140000", "144026.750000", "144027.360000", "144027.970000", "144028.580000", "144029.190000", "144029.800000", "144030.410000", "144031.020000", "144031.630000", "144032.240000", "144032.850000", "144033.460000", "144034.070000", "144034.680000", "144035.290000", "144035.900000", "144036.510000", "144037.120000", "144037.730000", "144038.340000", "144038.950000", "144039.560000", "144040.170000", "144040.780000", "144041.390000", "144042.000000", "144042.610000", "144043.220000", "144043.830000", "144044.440000", "144045.050000", "144045.660000", "144046.270000", "144046.880000", "144047.490000", "144048.100000", "144048.710000", "144049.320000", "144049.930000", "144050.540000", "144051.150000", "144051.760000", "144052.370000", "144052.980000", "144053.590000", "144054.200000", "144054.810000", "144055.420000", "144056.030000", "144056.640000", "144057.250000", "144057.860000", "144058.470000", "144059.080000", "144059.690000", "144100.300000", "144100.910000", "144101.520000", "144102.130000", "144102.740000", "144103.350000", "144103.960000", "144104.570000", "144105.180000", "144105.790000", "144106.400000", "144107.010000", "144107.620000", "144108.230000", "144108.840000", "144109.450000", "144110.060000", "144110.670000", "144111.280000", "144111.890000", "144112.500000", "144113.110000", "144113.720000", "144114.330000", "144114.940000", "144115.550000", "144116.160000", "144116.770000", "144117.380000", "144117.990000", "144118.600000", "144119.210000", "144119.820000", "144120.430000", "144121.040000", "144121.650000", "144122.260000", "144122.870000", "144123.480000", "144124.090000", "144124.700000", "144125.310000", "144125.920000", "144126.530000", "144127.140000", "144127.750000", "144128.360000", "144128.970000", "144129.580000", "144130.190000", "144130.800000", "144131.410000", "144132.020000", "144132.630000", "144133.240000", "144133.850000", "144134.460000", "144135.070000", "144135.680000", "144136.290000", "144136.900000", "144137.510000", "144138.120000", "144138.730000", "144139.340000", "144139.950000", "144140.560000", "144141.170000", "144141.780000", "144142.390000", "144143.000000", "144143.610000", "144144.220000", "144144.830000", "144145.440000", "144146.050000", "144146.660000", "144147.270000", "144147.880000", "144148.490000", "144149.100000", "144149.710000", "144150.320000", "144150.930000", "144151.540000", "144152.150000", "144152.760000", "144153.370000", "144153.980000", "144154.590000", "144155.200000", "144155.810000", "144156.420000", "144157.030000", "144157.640000", "144158.250000", "144158.860000", "144159.470000", "144200.080000", "144200.690000", "144201.300000", "144201.910000", "144202.520000", "144203.130000", "144203.740000", "144204.350000", "144204.960000", "144205.570000", "144206.180000", "144206.790000", "144207.400000", "144208.010000", "144208.620000", "144209.230000", "144209.840000", "144210.450000", "144211.060000", "144211.670000", "144212.280000", "144212.890000", "144213.500000", "144214.110000", "144214.720000", "144215.330000", "144215.940000", "144216.550000", "144217.160000", "144217.770000", "144218.380000", "144218.990000", "144219.600000", "144220.210000", "144220.820000", "144221.430000", "144222.040000", "144222.650000", "144223.260000", "144223.870000", "144224.480000", "144225.090000", "144225.700000", "144226.310000", "144226.920000", "144227.530000", "144228.140000", "144228.750000", "144229.360000", "144229.970000", "144230.580000", "144231.190000", "144231.800000", "144232.410000", "144233.020000", "144233.630000", "144234.240000", "144234.850000", "144235.460000", "144236.070000", "144236.680000", "144237.290000", "144237.900000", "144238.510000", "144239.120000", "144239.730000", "144240.340000", "144240.950000", "144241.560000", "144242.170000", "144242.780000", "144243.390000", "144244.000000", "144244.610000", "144245.220000", "144245.830000", "144246.440000", "144247.050000", "144247.660000", "144248.270000", "144248.880000", "144249.490000", "144250.100000", "144250.710000", "144251.320000", "144251.930000", "144252.540000", "144253.150000", "144253.760000", "144254.370000", "144254.980000", "144255.590000", "144256.200000", "144256.810000", "144257.420000", "144258.030000", "144258.640000", "144259.250000", "144259.860000", "144300.470000", "144301.080000", "144301.690000", "144302.300000", "144302.910000", "144303.520000", "144304.130000", "144304.740000", "144305.350000", "144305.960000", "144306.570000", "144307.180000", "144307.790000", "144308.400000", "144309.010000", "144309.620000", "144310.230000", "144310.840000", "144311.450000", "144312.060000", "144312.670000", "144313.280000", "144313.890000", "144314.500000", "144315.110000", "144315.720000", "144316.330000", "144316.940000", "144317.550000", "144318.160000", "144318.770000", "144319.380000", "144319.990000", "144320.600000", "144321.210000", "144321.820000", "144322.430000", "144323.040000", "144323.650000", "144324.260000", "144324.870000", "144325.480000", "144326.090000", "144326.700000", "144327.310000", "144327.920000", "144328.530000", "144329.140000", "144329.750000", "144330.360000", "144330.970000", "144331.580000", "144332.190000", "144332.800000", "144333.410000", "144334.020000", "144334.630000", "144335.240000", "144335.850000", "144336.460000", "144337.070000", "144337.680000", "144338.290000", "144338.900000", "144339.510000", "144340.120000", "144340.730000", "144341.340000", "144341.950000", "144342.560000", "144343.170000", "144343.780000", "144344.390000", "144345.000000", "144345.610000", "144346.220000", "144346.830000", "144347.440000", "144348.050000", "144348.660000", "144349.270000", "144349.880000", "144350.490000", "144351.100000", "144351.710000", "144352.320000", "144352.930000", "144353.540000", "144354.150000", "144354.760000", "144355.370000", "144355.980000", "144356.590000", "144357.200000", "144357.810000", "144358.420000", "144359.030000", "144359.640000", "144400.250000", "144400.860000", "144401.470000", "144402.080000", "144402.690000", "144403.300000", "144403.910000", "144404.520000", "144405.130000", "144405.740000", "144406.350000", "144406.960000", "144407.570000", "144408.180000", "144408.790000", "144409.400000", "144410.010000", "144410.620000", "144411.230000", "144411.840000", "144412.450000", "144413.060000", "144413.670000", "144414.280000", "144414.890000", "144415.500000", "144416.110000", "144416.720000", "144417.330000", "144417.940000", "144418.550000", "144419.160000", "144419.770000", "144420.380000", "144420.990000", "144421.600000", "144422.210000", "144422.820000", "144423.430000", "144424.040000", "144424.650000", "144425.260000", "144425.870000", "144426.480000", "144427.090000", "144427.700000", "144428.310000", "144428.920000", "144429.530000", "144430.140000", "144430.750000", "144431.360000", "144431.970000", "144432.580000", "144433.190000", "144433.800000", "144434.410000", "144435.020000", "144435.630000", "144436.240000", "144436.850000", "144437.460000", "144438.070000", "144438.680000", "144439.290000", "144439.900000", "144440.510000", "144441.120000", "144441.730000", "144442.340000", "144442.950000", "144443.560000", "144444.170000", "144444.780000", "144445.390000", "144446.000000", "144446.610000", "144447.220000", "144447.830000", "144448.440000", "144449.050000", "144449.660000", "144450.270000", "144450.880000", "144451.490000", "144452.100000", "144452.710000", "144453.320000", "144453.930000", "144454.540000", "144455.150000", "144455.760000", "144456.370000", "144456.980000", "144457.590000", "144458.200000", "144458.810000", "144459.420000", "144500.030000", "144500.640000", "144501.250000", "144501.860000", "144502.470000", "144503.080000", "144503.690000", "144504.300000", "144504.910000", "144505.520000", "144506.130000", "144506.740000", "144507.350000", "144507.960000", "144508.570000", "144509.180000", "144509.790000", "144510.400000", "144511.010000", "144511.620000", "144512.230000", "144512.840000", "144513.450000", "144514.060000", "144514.670000", "144515.280000", "144515.890000", "144516.500000", "144517.110000", "144517.720000", "144518.330000", "144518.940000", "144519.550000", "144520.160000", "144520.770000", "144521.380000", "144521.990000", "144522.600000", "144523.210000"], "ContentTime": ["144028.269000", "144028.272000", "144028.275000", "144028.277000", "144028.279000", "144028.282000", "144028.284000", "144028.286000", "144028.288000", "144028.291000", "144028.293000", "144028.295000", "144028.298000", "144028.300000", "144028.302000", "144028.309000", "144028.311000", "144028.313000", "144028.316000", "144028.327000", "144028.329000", "144028.332000", "144028.334000", "144028.337000", "144048.264000", "144048.267000", "144048.275000", "144048.277000", "144048.280000", "144048.282000", "144048.284000", "144048.287000", "144048.289000", "144048.291000", "144048.294000", "144048.296000", "144048.298000", "144048.301000", "144048.303000", "144048.312000", "144048.314000", "144048.316000", "144048.319000", "144048.321000", "144048.323000", "144048.326000", "144048.328000", "144048.330000", "144048.333000", "144048.335000", "144048.337000", "144048.339000", "144048.342000", "144048.344000", "144048.346000", "144048.349000", "144048.351000", "144108.264000", "144108.267000", "144108.269000", "144108.271000", "144108.274000", "144108.276000", "144108.285000", "144108.287000", "144108.289000", "144108.292000", "144108.294000", "144108.296000", "144108.299000", "144108.301000", "144108.303000", "144108.306000", "144108.308000", "144108.310000", "144108.312000", "144108.315000", "144108.317000", "144108.319000", "144108.322000", "144108.324000", "144108.326000", "144108.329000", "144108.331000", "144108.333000", "144108.336000", "144108.338000", "144108.340000", "144108.343000", "144108.345000", "144128.263000", "144128.266000", "144128.268000", "144128.270000", "144128.273000", "144128.275000", "144128.277000", "144128.280000", "144128.293000", "144128.295000", "144128.298000", "144128.300000", "144128.302000", "144128.305000", "144128.307000", "144128.309000", "144128.312000", "144128.314000", "144128.316000", "144128.319000", "144128.321000", "144128.323000", "144128.326000", "144128.328000", "144128.331000", "144128.333000", "144128.335000", "144128.338000", "144128.340000", "144128.342000", "144128.345000", "144128.347000", "144128.349000", "144148.263000", "144148.266000", "144148.268000", "144148.271000", "144148.273000", "144148.275000", "144148.278000", "144148.280000", "144148.282000", "144148.285000", "144148.287000", "144148.289000", "144148.292000", "144148.294000", "144148.297000", "144148.299000", "144148.301000", "144148.304000", "144148.306000", "144148.308000", "144148.311000", "144148.313000", "144148.315000", "144148.318000", "144148.320000", "144148.322000", "144148.325000", "144148.327000", "144148.329000", "144148.332000", "144148.334000", "144148.337000", "144208.263000", "144208.266000", "144208.268000", "144208.271000", "144208.273000", "144208.275000", "144208.278000", "144208.280000", "144208.282000", "144208.285000", "144208.287000", "144208.289000", "144208.292000", "144208.294000", "144208.301000", "144208.304000", "144208.307000", "144208.310000", "144208.312000", "144208.315000", "144208.317000", "144208.319000", "144208.322000", "144208.324000", "144208.326000", "144208.329000", "144208.331000", "144208.333000", "144208.336000", "144208.338000", "144208.340000", "144208.343000", "144208.345000", "144228.263000", "144228.266000", "144228.268000", "144228.270000", "144228.273000", "144228.275000", "144228.277000", "144228.280000", "144228.282000", "144228.285000", "144228.287000", "144228.289000", "144228.292000", "144228.294000", "144228.296000", "144228.299000", "144228.301000", "144228.303000", "144228.306000", "144228.308000", "144228.310000", "144228.313000", "144228.315000", "144228.317000", "144228.320000", "144228.322000", "144228.325000", "144228.327000", "144228.329000", "144228.332000", "144228.334000", "144228.336000", "144228.339000", "144248.263000", "144248.266000", "144248.268000", "144248.270000", "144248.273000", "144248.275000", "144248.277000", "144248.280000", "144248.282000", "144248.284000", "144248.287000", "144248.289000", "144248.291000", "144248.294000", "144248.296000", "144248.299000", "144248.301000", "144248.303000", "144248.306000", "144248.308000", "144248.310000", "144248.313000", "144248.315000", "144248.317000", "144248.320000", "144248.322000", "144248.324000", "144248.327000", "144248.329000", "144248.331000", "144248.334000", "144248.336000", "144248.338000", "144308.264000", "144308.267000", "144308.269000", "144308.272000", "144308.274000", "144308.276000", "144308.279000", "144308.281000", "144308.283000", "144308.286000", "144308.288000", "144308.291000", "144308.293000", "144308.295000", "144308.298000", "144308.300000", "144308.302000", "144308.305000", "144308.307000", "144308.309000", "144308.312000", "144308.314000", "144308.320000", "144308.322000", "144308.324000", "144308.327000", "144308.329000", "144308.332000", "144308.334000", "144308.336000", "144308.339000", "144308.341000", "144308.343000", "144328.263000", "144328.266000", "144328.268000", "144328.271000", "144328.273000", "144328.276000", "144328.278000", "144328.280000", "144328.283000", "144328.285000", "144328.287000", "144328.290000", "144328.292000", "144328.294000", "144328.297000", "144328.299000", "144328.301000", "144328.304000", "144328.306000", "144328.308000", "144328.311000", "144328.313000", "144328.315000", "144328.318000", "144328.320000", "144328.323000", "144328.325000", "144328.327000", "144328.330000", "144328.332000", "144328.334000", "144328.337000", "144348.263000", "144348.266000", "144348.268000", "144348.271000", "144348.273000", "144348.276000", "144348.278000", "144348.280000", "144348.283000", "144348.285000", "144348.287000", "144348.290000", "144348.292000", "144348.295000", "144348.297000", "144348.300000", "144348.302000", "144348.304000", "144348.307000", "144348.309000", "144348.311000", "144348.314000", "144348.316000", "144348.318000", "144348.321000", "144348.323000", "144348.325000", "144348.328000", "144348.330000", "144348.332000", "144348.335000", "144348.337000", "144348.340000", "144408.263000", "144408.266000", "144408.268000", "144408.271000", "144408.273000", "144408.276000", "144408.278000", "144408.280000", "144408.283000", "144408.285000", "144408.288000", "144408.290000", "144408.292000", "144408.295000", "144408.297000", "144408.299000", "144408.302000", "144408.304000", "144408.307000", "144408.309000", "144408.311000", "144408.336000", "144408.339000", "144408.341000", "144408.343000", "144408.346000", "144408.348000", "144408.351000", "144408.353000", "144408.355000", "144408.358000", "144408.360000", "144408.362000", "144428.263000", "144428.266000", "144428.268000", "144428.270000", "144428.273000", "144428.275000", "144428.277000", "144428.280000", "144428.282000", "144428.285000", "144428.287000", "144428.289000", "144428.292000", "144428.294000", "144428.296000", "144428.299000", "144428.301000", "144428.304000", "144428.306000", "144428.308000", "144428.311000", "144428.313000", "144428.315000", "144428.318000", "144428.320000", "144428.323000", "144428.325000", "144428.327000", "144428.330000", "144428.332000", "144428.335000", "144428.337000", "144428.339000", "144448.263000", "144448.266000", "144448.268000", "144448.271000", "144448.273000", "144448.275000", "144448.278000", "144448.280000", "144448.282000", "144448.285000", "144448.288000", "144448.290000", "144448.293000", "144448.295000", "144448.298000", "144448.300000", "144448.303000", "144448.305000", "144448.307000", "144448.310000", "144448.312000", "144448.314000", "144448.317000", "144448.319000", "144448.322000", "144448.324000", "144448.326000", "144448.329000", "144448.331000", "144448.334000", "144448.336000", "144448.338000", "144508.263000", "144508.266000", "144508.268000", "144508.271000", "144508.273000", "144508.275000", "144508.278000", "144508.280000", "144508.282000", "144508.285000", "144508.287000", "144508.289000", "144508.292000", "144508.294000", "144508.296000", "144508.299000", "144508.301000", "144508.304000", "144508.306000", "144508.309000", "144508.311000", "144508.314000", "144508.316000", "144508.319000", "144508.321000", "144508.323000", "144508.326000", "144508.328000", "144508.330000", "144508.333000", "144508.335000", "144508.337000", "144508.340000", "144524.250000", "144524.253000", "144524.255000", "144524.257000", "144524.260000", "144524.262000", "144524.264000", "144524.267000", "144524.269000", "144524.272000", "144524.274000", "144524.276000", "144524.279000", "144524.281000", "144524.283000", "144524.286000", "144524.288000", "144524.290000", "144524.293000", "144524.295000", "144524.297000", "144524.300000", "144524.302000", "144524.305000", "144524.307000", "144524.309000", "144524.312000"], "InstanceCreationTime": ["144028.269000", "144028.272000", "144028.275000", "144028.277000", "144028.279000", "144028.282000", "144028.284000", "144028.286000", "144028.288000", "144028.291000", "144028.293000", "144028.295000", "144028.298000", "144028.300000", "144028.302000", "144028.309000", "144028.311000", "144028.313000", "144028.316000", "144028.327000", "144028.329000", "144028.332000", "144028.334000", "144028.337000", "144048.264000", "144048.267000", "144048.275000", "144048.277000", "144048.280000", "144048.282000", "144048.284000", "144048.287000", "144048.289000", "144048.291000", "144048.294000", "144048.296000", "144048.298000", "144048.301000", "144048.303000", "144048.312000", "144048.314000", "144048.316000", "144048.319000", "144048.321000", "144048.323000", "144048.326000", "144048.328000", "144048.330000", "144048.333000", "144048.335000", "144048.337000", "144048.339000", "144048.342000", "144048.344000", "144048.346000", "144048.349000", "144048.351000", "144108.264000", "144108.267000", "144108.269000", "144108.271000", "144108.274000", "144108.276000", "144108.285000", "144108.287000", "144108.289000", "144108.292000", "144108.294000", "144108.296000", "144108.299000", "144108.301000", "144108.303000", "144108.306000", "144108.308000", "144108.310000", "144108.312000", "144108.315000", "144108.317000", "144108.319000", "144108.322000", "144108.324000", "144108.326000", "144108.329000", "144108.331000", "144108.333000", "144108.336000", "144108.338000", "144108.340000", "144108.343000", "144108.345000", "144128.263000", "144128.266000", "144128.268000", "144128.270000", "144128.273000", "144128.275000", "144128.277000", "144128.280000", "144128.293000", "144128.295000", "144128.298000", "144128.300000", "144128.302000", "144128.305000", "144128.307000", "144128.309000", "144128.312000", "144128.314000", "144128.316000", "144128.319000", "144128.321000", "144128.323000", "144128.326000", "144128.328000", "144128.331000", "144128.333000", "144128.335000", "144128.338000", "144128.340000", "144128.342000", "144128.345000", "144128.347000", "144128.349000", "144148.263000", "144148.266000", "144148.268000", "144148.271000", "144148.273000", "144148.275000", "144148.278000", "144148.280000", "144148.282000", "144148.285000", "144148.287000", "144148.289000", "144148.292000", "144148.294000", "144148.297000", "144148.299000", "144148.301000", "144148.304000", "144148.306000", "144148.308000", "144148.311000", "144148.313000", "144148.315000", "144148.318000", "144148.320000", "144148.322000", "144148.325000", "144148.327000", "144148.329000", "144148.332000", "144148.334000", "144148.337000", "144208.263000", "144208.266000", "144208.268000", "144208.271000", "144208.273000", "144208.275000", "144208.278000", "144208.280000", "144208.282000", "144208.285000", "144208.287000", "144208.289000", "144208.292000", "144208.294000", "144208.301000", "144208.304000", "144208.307000", "144208.310000", "144208.312000", "144208.315000", "144208.317000", "144208.319000", "144208.322000", "144208.324000", "144208.326000", "144208.329000", "144208.331000", "144208.333000", "144208.336000", "144208.338000", "144208.340000", "144208.343000", "144208.345000", "144228.263000", "144228.266000", "144228.268000", "144228.270000", "144228.273000", "144228.275000", "144228.277000", "144228.280000", "144228.282000", "144228.285000", "144228.287000", "144228.289000", "144228.292000", "144228.294000", "144228.296000", "144228.299000", "144228.301000", "144228.303000", "144228.306000", "144228.308000", "144228.310000", "144228.313000", "144228.315000", "144228.317000", "144228.320000", "144228.322000", "144228.325000", "144228.327000", "144228.329000", "144228.332000", "144228.334000", "144228.336000", "144228.339000", "144248.263000", "144248.266000", "144248.268000", "144248.270000", "144248.273000", "144248.275000", "144248.277000", "144248.280000", "144248.282000", "144248.284000", "144248.287000", "144248.289000", "144248.291000", "144248.294000", "144248.296000", "144248.299000", "144248.301000", "144248.303000", "144248.306000", "144248.308000", "144248.310000", "144248.313000", "144248.315000", "144248.317000", "144248.320000", "144248.322000", "144248.324000", "144248.327000", "144248.329000", "144248.331000", "144248.334000", "144248.336000", "144248.338000", "144308.264000", "144308.267000", "144308.269000", "144308.272000", "144308.274000", "144308.276000", "144308.279000", "144308.281000", "144308.283000", "144308.286000", "144308.288000", "144308.291000", "144308.293000", "144308.295000", "144308.298000", "144308.300000", "144308.302000", "144308.305000", "144308.307000", "144308.309000", "144308.312000", "144308.314000", "144308.320000", "144308.322000", "144308.324000", "144308.327000", "144308.329000", "144308.332000", "144308.334000", "144308.336000", "144308.339000", "144308.341000", "144308.343000", "144328.263000", "144328.266000", "144328.268000", "144328.271000", "144328.273000", "144328.276000", "144328.278000", "144328.280000", "144328.283000", "144328.285000", "144328.287000", "144328.290000", "144328.292000", "144328.294000", "144328.297000", "144328.299000", "144328.301000", "144328.304000", "144328.306000", "144328.308000", "144328.311000", "144328.313000", "144328.315000", "144328.318000", "144328.320000", "144328.323000", "144328.325000", "144328.327000", "144328.330000", "144328.332000", "144328.334000", "144328.337000", "144348.263000", "144348.266000", "144348.268000", "144348.271000", "144348.273000", "144348.276000", "144348.278000", "144348.280000", "144348.283000", "144348.285000