{"AcquisitionMatrixPE": 64, "AcquisitionNumber": 1, "AcquisitionTime": "14:51:49.700000", "BandwidthPerPixelPhaseEncode": 28.935, "BaseResolution": 64, "BodyPartExamined": "BRAIN", "CoilString": "HC2_4_6_7;SC", "ConsistencyInfo": "N4_VE11E_LATEST_20181129", "ConversionSoftware": "dcm2niix", "ConversionSoftwareVersion": "v1.0.20190902", "DerivedVendorReportedEchoSpacing": 0.000540003, "DeviceSerialNumber": "166182", "DwellTime": 3.4e-06, "EchoTime": 0.032, "EchoTrainLength": 64, "EffectiveEchoSpacing": 0.000540003, "FlipAngle": 40, "ImageOrientationPatientDICOM": [0.998129, 0.0537411, -0.0291598, -0.0507377, 0.99414, 0.0954555], "ImageType": ["ORIGINAL", "PRIMARY", "M", "ND", "NORM", "MOSAIC"], "ImagingFrequency": 123.256, "InPlanePhaseEncodingDirectionDICOM": "COL", "InstitutionAddress": "PEARSE_STREET_._City_District_IE_D2", "InstitutionName": "TCIN", "InstitutionalDepartmentName": "MRI", "MRAcquisitionType": "2D", "MagneticFieldStrength": 3, "Manufacturer": "Siemens", "ManufacturersModelName": "Prisma", "Modality": "MR", "MultibandAccelerationFactor": 4, "PartialFourier": 1, "PatientPosition": "HFS", "PercentPhaseFOV": 100, "PhaseEncodingDirection": "j-", "PhaseEncodingSteps": 64, "PhaseResolution": 1, "PixelBandwidth": 2300, "ProcedureStepDescription": "Rhodri_Head_BOLD", "ProtocolName": "cmrr_mbep2d_Pictures_AP_RDS", "PulseSequenceDetails": "%SiemensSeq%_ep2d_bold", "ReceiveCoilActiveElements": "HC2,4,6,7;SC", "ReceiveCoilName": "SpecialPurpose_4", "ReconMatrixPE": 64, "RefLinesPE": 12, "RepetitionTime": 0.61, "SAR": 0.211292, "ScanOptions": "FS", "ScanningSequence": "EP", "SequenceName": "_epfid2d1_64", "SequenceVariant": "SK", "SeriesDescription": "cmrr_mbep2d_Pictures_AP_RDS", "SeriesNumber": 10, "ShimSetting": [-3565, -7611, 3864, 1162, 179, -16, 780, -58], "SliceThickness": 3, "SliceTiming": [0.2625, 0, 0.3275, 0.065, 0.3925, 0.13, 0.4575, 0.195, 0.5225, 0.2625, 0, 0.3275, 0.065, 0.3925, 0.13, 0.4575, 0.195, 0.5225, 0.2625, 0, 0.3275, 0.065, 0.3925, 0.13, 0.4575, 0.195, 0.5225, 0.2625, 0, 0.3275, 0.065, 0.3925, 0.13, 0.4575, 0.195, 0.5225], "SoftwareVersions": "syngo_MR_E11", "SpacingBetweenSlices": 3.3, "StationName": "AWP166182", "TaskName": "pictures", "TotalReadoutTime": 0.0340202, "TxRefAmp": 227.335, "dcmmeta_affine": [[-2.994387149810791, -0.15221302211284637, -0.11259205639362335, 105.95487976074219], [-0.16122344136238098, 2.982419490814209, 0.309531569480896, -95.90837860107422], [-0.08747939020395279, -0.28636661171913147, 3.2835214138031006, -67.81653594970703], [0.0, 0.0, 0.0, 1.0]], "dcmmeta_reorient_transform": [[0.0, -1.0, 0.0, 63.0], [1.0, 0.0, 0.0, 0.0], [0.0, 0.0, 1.0, 0.0], [0.0, 0.0, 0.0, 1.0]], "dcmmeta_shape": [64, 64, 36, 209], "dcmmeta_slice_dim": 2, "dcmmeta_version": 0.6, "global": {"const": {"AcquisitionMatrix": [64, 0, 0, 64], "AngioFlag": "N", "BitsAllocated": 16, "BitsStored": 12, "BodyPartExamined": "BRAIN", "Columns": 384, "EchoNumbers": 1, "EchoTime": 32.0, "EchoTrainLength": 64, "FlipAngle": 40.0, "HighBit": 11, "ImageOrientationPatient": [0.99812904750309, 0.05374114549617, -0.0291597978617, -0.0507376748404, 0.99413979323752, 0.09545553862113], "ImagePositionPatient": [-551.11331705586, -594.96689572434, -117.67958703386], "ImageType": ["ORIGINAL", "PRIMARY", "M", "ND", "NORM", "MOSAIC"], "ImagedNucleus": "1H", "ImagingFrequency": 123.256421, "InPlanePhaseEncodingDirection": "COL", "MRAcquisitionType": "2D", "MagneticFieldStrength": 3.0, "Manufacturer": "SIEMENS", "ManufacturerModelName": "Prisma", "Modality": "MR", "NumberOfAverages": 1.0, "NumberOfPhaseEncodingSteps": 64, "PercentPhaseFieldOfView": 100.0, "PercentSampling": 100.0, "PerformedProcedureStepStartTime": "142613.502000", "PhotometricInterpretation": "MONOCHROME2", "PixelBandwidth": 2300.0, "PixelRepresentation": 0, "PixelSpacing": [3.0, 3.0], "ProtocolName": "cmrr_mbep2d_Pictures_AP_RDS", "RepetitionTime": 610.0, "Rows": 384, "SAR": 0.21129213731253, "SamplesPerPixel": 1, "ScanOptions": "FS", "ScanningSequence": "EP", "SequenceName": "*epfid2d1_64", "SequenceVariant": "SK", "SeriesDescription": "cmrr_mbep2d_Pictures_AP_RDS", "SeriesNumber": 10, "SeriesTime": "145215.708000", "SliceLocation": -80.088907729114, "SliceThickness": 3.0, "SmallestImagePixelValue": 0, "SoftwareVersions": "syngo MR E11", "SpacingBetweenSlices": 3.300000018503, "SpecificCharacterSet": "ISO_IR 100", "StudyID": "1", "StudyTime": "142613.415000", "TransmitCoilName": "Body", "VariableFlipAngleFlag": "N", "WindowCenterWidthExplanation": "Algo1"}, "slices": {}}, "time": {"samples": {"AcquisitionNumber": [1, 2, 3, 4, 5, 6, 7, 8, 9, 10, 11, 12, 13, 14, 15, 16, 17, 18, 19, 20, 21, 22, 23, 24, 25, 26, 27, 28, 29, 30, 31, 32, 33, 34, 35, 36, 37, 38, 39, 40, 41, 42, 43, 44, 45, 46, 47, 48, 49, 50, 51, 52, 53, 54, 55, 56, 57, 58, 59, 60, 61, 62, 63, 64, 65, 66, 67, 68, 69, 70, 71, 72, 73, 74, 75, 76, 77, 78, 79, 80, 81, 82, 83, 84, 85, 86, 87, 88, 89, 90, 91, 92, 93, 94, 95, 96, 97, 98, 99, 100, 101, 102, 103, 104, 105, 106, 107, 108, 109, 110, 111, 112, 113, 114, 115, 116, 117, 118, 119, 120, 121, 122, 123, 124, 125, 126, 127, 128, 129, 130, 131, 132, 133, 134, 135, 136, 137, 138, 139, 140, 141, 142, 143, 144, 145, 146, 147, 148, 149, 150, 151, 152, 153, 154, 155, 156, 157, 158, 159, 160, 161, 162, 163, 164, 165, 166, 167, 168, 169, 170, 171, 172, 173, 174, 175, 176, 177, 178, 179, 180, 181, 182, 183, 184, 185, 186, 187, 188, 189, 190, 191, 192, 193, 194, 195, 196, 197, 198, 199, 200, 201, 202, 203, 204, 205, 206, 207, 208, 209], "AcquisitionTime": ["145149.700000", "145150.310000", "145150.920000", "145151.530000", "145152.140000", "145152.750000", "145153.360000", "145153.970000", "145154.580000", "145155.190000", "145155.800000", "145156.410000", "145157.020000", "145157.630000", "145158.240000", "145158.850000", "145159.460000", "145200.070000", "145200.680000", "145201.290000", "145201.900000", "145202.510000", "145203.120000", "145203.730000", "145204.340000", "145204.950000", "145205.560000", "145206.170000", "145206.780000", "145207.390000", "145208.000000", "145208.610000", "145209.220000", "145209.830000", "145210.440000", "145211.050000", "145211.660000", "145212.270000", "145212.880000", "145213.490000", "145214.100000", "145214.710000", "145215.320000", "145215.930000", "145216.540000", "145217.150000", "145217.760000", "145218.370000", "145218.980000", "145219.590000", "145220.200000", "145220.810000", "145221.420000", "145222.030000", "145222.640000", "145223.250000", "145223.860000", "145224.470000", "145225.080000", "145225.690000", "145226.300000", "145226.910000", "145227.520000", "145228.130000", "145228.740000", "145229.350000", "145229.960000", "145230.570000", "145231.180000", "145231.790000", "145232.400000", "145233.010000", "145233.620000", "145234.230000", "145234.840000", "145235.450000", "145236.060000", "145236.670000", "145237.280000", "145237.890000", "145238.500000", "145239.110000", "145239.720000", "145240.330000", "145240.940000", "145241.550000", "145242.160000", "145242.770000", "145243.380000", "145243.990000", "145244.600000", "145245.210000", "145245.820000", "145246.430000", "145247.040000", "145247.650000", "145248.260000", "145248.870000", "145249.480000", "145250.090000", "145250.700000", "145251.310000", "145251.920000", "145252.530000", "145253.140000", "145253.750000", "145254.360000", "145254.970000", "145255.580000", "145256.190000", "145256.800000", "145257.410000", "145258.020000", "145258.630000", "145259.240000", "145259.850000", "145300.460000", "145301.070000", "145301.680000", "145302.290000", "145302.900000", "145303.510000", "145304.120000", "145304.730000", "145305.340000", "145305.950000", "145306.560000", "145307.170000", "145307.780000", "145308.390000", "145309.000000", "145309.610000", "145310.220000", "145310.830000", "145311.440000", "145312.050000", "145312.660000", "145313.270000", "145313.880000", "145314.490000", "145315.100000", "145315.710000", "145316.320000", "145316.930000", "145317.540000", "145318.150000", "145318.760000", "145319.370000", "145319.980000", "145320.590000", "145321.200000", "145321.810000", "145322.420000", "145323.030000", "145323.640000", "145324.250000", "145324.860000", "145325.470000", "145326.080000", "145326.690000", "145327.300000", "145327.910000", "145328.520000", "145329.130000", "145329.740000", "145330.350000", "145330.960000", "145331.570000", "145332.180000", "145332.790000", "145333.400000", "145334.010000", "145334.620000", "145335.230000", "145335.840000", "145336.450000", "145337.060000", "145337.670000", "145338.280000", "145338.890000", "145339.500000", "145340.110000", "145340.720000", "145341.330000", "145341.940000", "145342.550000", "145343.160000", "145343.770000", "145344.380000", "145344.990000", "145345.600000", "145346.210000", "145346.820000", "145347.430000", "145348.040000", "145348.650000", "145349.260000", "145349.870000", "145350.480000", "145351.090000", "145351.700000", "145352.310000", "145352.920000", "145353.530000", "145354.140000", "145354.750000", "145355.360000", "145355.970000", "145356.580000"], "ContentTime": ["145215.712000", "145215.715000", "145215.717000", "145215.720000", "145215.722000", "145215.724000", "145215.727000", "145215.729000", "145215.732000", "145215.742000", "145215.744000", "145215.746000", "145215.749000", "145215.751000", "145215.753000", "145215.756000", "145215.758000", "145215.761000", "145215.763000", "145215.765000", "145215.768000", "145215.770000", "145215.773000", "145215.775000", "145215.777000", "145215.780000", "145215.789000", "145215.791000", "145215.793000", "145215.796000", "145215.798000", "145215.800000", "145215.803000", "145215.805000", "145215.808000", "145215.810000", "145215.812000", "145215.815000", "145215.817000", "145215.819000", "145215.822000", "145215.824000", "145235.707000", "145235.710000", "145235.713000", "145235.715000", "145235.718000", "145235.720000", "145235.722000", "145235.725000", "145235.727000", "145235.729000", "145235.732000", "145235.734000", "145235.736000", "145235.739000", "145235.741000", "145235.743000", "145235.746000", "145235.748000", "145235.750000", "145235.753000", "145235.755000", "145235.757000", "145235.760000", "145235.762000", "145235.764000", "145235.767000", "145235.769000", "145235.771000", "145235.774000", "145235.776000", "145235.778000", "145235.781000", "145255.707000", "145255.710000", "145255.712000", "145255.715000", "145255.717000", "145255.720000", "145255.722000", "145255.730000", "145255.732000", "145255.734000", "145255.737000", "145255.739000", "145255.741000", "145255.744000", "145255.746000", "145255.748000", "145255.751000", "145255.753000", "145255.755000", "145255.758000", "145255.760000", "145255.762000", "145255.765000", "145255.767000", "145255.769000", "145255.772000", "145255.774000", "145255.777000", "145255.779000", "145255.781000", "145255.783000", "145255.786000", "145255.788000", "145315.707000", "145315.710000", "145315.712000", "145315.714000", "145315.717000", "145315.719000", "145315.721000", "145315.724000", "145315.726000", "145315.728000", "145315.731000", "145315.733000", "145315.735000", "145315.738000", "145315.740000", "145315.742000", "145315.745000", "145315.747000", "145315.749000", "145315.752000", "145315.754000", "145315.756000", "145315.759000", "145315.761000", "145315.763000", "145315.766000", "145315.768000", "145315.770000", "145315.773000", "145315.775000", "145315.785000", "145315.788000", "145315.790000", "145335.709000", "145335.711000", "145335.714000", "145335.716000", "145335.718000", "145335.721000", "145335.723000", "145335.725000", "145335.728000", "145335.730000", "145335.732000", "145335.735000", "145335.737000", "145335.739000", "145335.742000", "145335.744000", "145335.746000", "145335.749000", "145335.751000", "145335.753000", "145335.756000", "145335.758000", "145335.760000", "145335.763000", "145335.765000", "145335.768000", "145335.770000", "145335.772000", "145335.775000", "145335.777000", "145335.779000", "145335.782000", "145335.784000", "145355.709000", "145355.714000", "145355.717000", "145355.720000", "145355.722000", "145355.724000", "145355.727000", "145355.729000", "145355.731000", "145355.734000", "145355.736000", "145355.739000", "145355.741000", "145355.743000", "145355.746000", "145355.748000", "145355.750000", "145355.753000", "145355.755000", "145355.757000", "145355.760000", "145355.762000", "145355.764000", "145355.767000", "145355.769000", "145355.772000", "145355.774000", "145355.776000", "145355.779000", "145355.781000", "145355.783000", "145355.786000", "145355.788000", "145357.935000", "145357.938000", "145357.940000"], "InstanceCreationTime": ["145215.712000", "145215.715000", "145215.717000", "145215.720000", "145215.722000", "145215.724000", "145215.727000", "145215.729000", "145215.732000", "145215.742000", "145215.744000", "145215.746000", "145215.749000", "145215.751000", "145215.753000", "145215.756000", "145215.758000", "145215.761000", "145215.763000", "145215.765000", "145215.768000", "145215.770000", "145215.773000", "145215.775000", "145215.777000", "145215.780000", "145215.789000", "145215.791000", "145215.793000", "145215.796000", "145215.798000", "145215.800000", "145215.803000", "145215.805000", "145215.808000", "145215.810000", "145215.812000", "145215.815000", "145215.817000", "145215.819000", "145215.822000", "145215.824000", "145235.707000", "145235.710000", "145235.713000", "145235.715000", "145235.718000", "145235.720000", "145235.722000", "145235.725000", "145235.727000", "145235.729000", "145235.732000", "145235.734000", "145235.736000", "145235.739000", "145235.741000", "145235.743000", "145235.746000", "145235.748000", "145235.750000", "145235.753000", "145235.755000", "145235.757000", "145235.760000", "145235.762000", "145235.764000", "145235.767000", "145235.769000", "145235.771000", "145235.774000", "145235.776000", "145235.778000", "145235.781000", "145255.707000", "145255.710000", "145255.712000", "145255.715000", "145255.717000", "145255.720000", "145255.722000", "145255.730000", "145255.732000", "145255.734000", "145255.737000", "145255.739000", "145255.741000", "145255.744000", "145255.746000", "145255.748000", "145255.751000", "145255.753000", "145255.755000", "145255.758000", "145255.760000", "145255.762000", "145255.765000", "145255.767000", "145255.769000", "145255.772000", "145255.774000", "145255.777000", "145255.779000", "145255.781000", "145255.783000", "145255.786000", "145255.788000", "145315.707000", "145315.710000", "145315.712000", "145315.714000", "145315.717000", "145315.719000", "145315.721000", "145315.724000", "145315.726000", "145315.728000", "145315.731000", "145315.733000", "145315.735000", "145315.738000", "145315.740000", "145315.742000", "145315.745000", "145315.747000", "145315.749000", "145315.752000", "145315.754000", "145315.756000", "145315.759000", "145315.761000", "145315.763000", "145315.766000", "145315.768000", "145315.770000", "145315.773000", "145315.775000", "145315.785000", "145315.788000", "145315.790000", "145335.709000", "145335.711000", "145335.714000", "145335.716000", "145335.718000", "145335.721000", "145335.723000", "145335.725000", "145335.728000", "145335.730000", "145335.732000", "145335.735000", "145335.737000", "145335.739000", "145335.742000", "145335.744000", "145335.746000", "145335.749000", "145335.751000", "145335.753000", "145335.756000", "145335.758000", "145335.760000", "145335.763000", "145335.765000", "145335.768000", "145335.770000", "145335.772000", "145335.775000", "145335.777000", "145335.779000", "145335.782000", "145335.784000", "145355.709000", "145355.714000", "145355.717000", "145355.720000", "145355.722000", "145355.724000", "145355.727000", "145355.729000", "145355.731000", "145355.734000", "145355.736000", "145355.739000", "145355.741000", "145355.743000", "145355.746000", "145355.748000", "145355.750000", "145355.753000", "145355.755000", "145355.757000", "145355.760000", "145355.762000", "145355.764000", "145355.767000", "145355.769000", "145355.772000", "145355.774000", "145355.776000", "145355.779000", "145355.781000", "145355.783000", "145355.786000", "145355.788000", "145357.935000", "145357.938000", "145357.940000"], "InstanceNumber": [1, 2, 3, 4, 5, 6, 7, 8, 9, 10, 11, 12, 13, 14, 15, 16, 17, 18, 19, 20, 21, 22, 23, 24, 25, 26, 27, 28, 29, 30, 31, 32, 33, 34, 35, 36, 37, 38, 39, 40, 41, 42, 43, 44, 45, 46, 47, 48, 49, 50, 51, 52, 53, 54, 55, 56, 57, 58, 59, 60, 61, 62, 63, 64, 65, 66, 67, 68, 69, 70, 71, 72, 73, 74, 75, 76, 77, 78, 79, 80, 81, 82, 83, 84, 85, 86, 87, 88, 89, 90, 91, 92, 93, 94, 95, 96, 97, 98, 99, 100, 101, 102, 103, 104, 105, 106, 107, 108, 109, 110, 111, 112, 113, 114, 115, 116, 117, 118, 119, 120, 121, 122, 123, 124, 125, 126, 127, 128, 129, 130, 131, 132, 133, 134, 135, 136, 137, 138, 139, 140, 141, 142, 143, 144, 145, 146, 147, 148, 149, 150, 151, 152, 153, 154, 155, 156, 157, 158, 159, 160, 161, 162, 163, 164, 165, 166, 167, 168, 169, 170, 171, 172, 173, 174, 175, 176, 177, 178, 179, 180, 181, 182, 183, 184, 185, 186, 187, 188, 189, 190, 191, 192, 193, 194, 195, 196, 197, 198, 199, 200, 201, 202, 203, 204, 205, 206, 207, 208, 209], "LargestImagePixelValue": [819, 665, 590, 534, 504, 484, 477, 514, 522, 450, 448, 458, 466, 480, 563, 450, 450, 474, 507, 469, 480, 583, 493, 447, 433, 474, 626, 596, 544, 433, 443, 434, 461, 510, 617, 508, 521, 482, 516, 590, 598, 475, 465, 455, 462, 687, 558, 471, 454, 445, 441, 475, 477, 448, 444, 468, 482, 469, 480, 538, 508, 460, 447, 467, 628, 532, 491, 460, 475, 487, 484, 633, 435, 468, 499, 643, 523, 469, 671, 590, 519, 514, 568, 449, 496, 461, 498, 445, 563, 490, 421, 480, 519, 508, 544, 552, 632, 523, 638, 537, 633, 465, 483, 469, 590, 566, 514, 539, 453, 590, 617, 599, 524, 581, 543, 466, 461, 536, 621, 549, 570, 471, 518, 549, 521, 445, 525, 453, 521, 540, 476, 468, 504, 494, 660, 591, 552, 482, 464, 550, 549, 649, 527, 562, 582, 457, 446, 525, 603, 466, 458, 480, 444, 453, 457, 551, 466, 463, 473, 512, 476, 507, 513, 459, 458, 503, 483, 446, 588, 461, 447, 508, 446, 444, 506, 461, 464, 462, 532, 527, 462, 507, 484, 440, 456, 459, 462, 473, 475, 468, 467, 437, 507, 501, 687, 673, 586, 477, 441, 476, 452, 467, 482, 478, 563, 532, 472, 474, 450], "WindowCenter": [291.0, 290.0, 288.0, 283.0, 283.0, 283.0, 282.0, 281.0, 280.0, 279.0, 279.0, 282.0, 281.0, 282.0, 283.0, 274.0, 277.0, 282.0, 282.0, 279.0, 287.0, 284.0, 281.0, 266.0, 282.0, 281.0, 287.0, 285.0, 284.0, 270.0, 276.0, 276.0, 287.0, 289.0, 289.0, 284.0, 284.0, 283.0, 283.0, 284.0, 284.0, 281.0, 281.0, 277.0, 276.0, 288.0, 285.0, 280.0, 278.0, 278.0, 278.0, 280.0, 285.0, 282.0, 276.0, 272.0, 273.0, 285.0, 281.0, 288.0, 284.0, 281.0, 277.0, 280.0, 280.0, 286.0, 281.0, 283.0, 284.0, 283.0, 284.0, 279.0, 260.0, 284.0, 278.0, 287.0, 275.0, 284.0, 288.0, 285.0, 283.0, 283.0, 286.0, 279.0, 286.0, 286.0, 284.0, 282.0, 286.0, 279.0, 257.0, 280.0, 282.0, 289.0, 282.0, 277.0, 279.0, 283.0, 286.0, 285.0, 285.0, 274.0, 278.0, 281.0, 287.0, 286.0, 286.0, 279.0, 269.0, 284.0, 290.0, 283.0, 283.0, 278.0, 271.0, 269.0, 275.0, 287.0, 285.0, 280.0, 280.0, 280.0, 276.0, 274.0, 282.0, 277.0, 258.0, 255.0, 268.0, 299.0, 280.0, 277.0, 275.0, 284.0, 282.0, 282.0, 278.0, 264.0, 281.0, 284.0, 279.0, 283.0, 276.0, 278.0, 279.0, 271.0, 275.0, 282.0, 279.0, 280.0, 279.0, 278.0, 274.0, 283.0, 277.0, 282.0, 279.0, 279.0, 276.0, 276.0, 278.0, 280.0, 279.0, 278.0, 279.0, 279.0, 277.0, 277.0, 281.0, 279.0, 278.0, 279.0, 276.0, 277.0, 277.0, 276.0, 277.0, 279.0, 278.0, 279.0, 278.0, 281.0, 278.0, 275.0, 279.0, 278.0, 279.0, 280.0, 282.0, 279.0, 279.0, 264.0, 281.0, 273.0, 283.0, 284.0, 283.0, 280.0, 280.0, 279.0, 277.0, 281.0, 282.0, 279.0, 280.0, 279.0, 280.0, 278.0, 280.0], "WindowWidth": [634.0, 634.0, 630.0, 621.0, 621.0, 620.0, 619.0, 616.0, 615.0, 613.0, 613.0, 620.0, 618.0, 618.0, 620.0, 604.0, 611.0, 618.0, 619.0, 614.0, 628.0, 622.0, 617.0, 590.0, 619.0, 616.0, 628.0, 623.0, 623.0, 597.0, 608.0, 608.0, 628.0, 633.0, 632.0, 623.0, 622.0, 620.0, 620.0, 623.0, 621.0, 618.0, 617.0, 609.0, 608.0, 629.0, 623.0, 615.0, 611.0, 612.0, 613.0, 616.0, 625.0, 620.0, 608.0, 601.0, 603.0, 625.0, 617.0, 631.0, 622.0, 618.0, 610.0, 616.0, 615.0, 627.0, 618.0, 621.0, 623.0, 622.0, 622.0, 613.0, 578.0, 623.0, 611.0, 627.0, 606.0, 623.0, 630.0, 623.0, 620.0, 620.0, 626.0, 614.0, 625.0, 626.0, 622.0, 619.0, 626.0, 614.0, 572.0, 616.0, 619.0, 632.0, 619.0, 609.0, 611.0, 620.0, 624.0, 625.0, 624.0, 605.0, 612.0, 618.0, 627.0, 627.0, 626.0, 613.0, 594.0, 621.0, 633.0, 620.0, 621.0, 610.0, 598.0, 596.0, 607.0, 628.0, 626.0, 615.0, 614.0, 616.0, 608.0, 604.0, 619.0, 611.0, 572.0, 570.0, 593.0, 652.0, 615.0, 610.0, 605.0, 622.0, 618.0, 619.0, 612.0, 585.0, 618.0, 622.0, 613.0, 620.0, 607.0, 613.0, 612.0, 598.0, 606.0, 618.0, 612.0, 616.0, 615.0, 611.0, 605.0, 621.0, 611.0, 619.0, 614.0, 615.0, 608.0, 608.0, 613.0, 617.0, 615.0, 612.0, 614.0, 614.0, 611.0, 609.0, 618.0, 614.0, 613.0, 614.0, 610.0, 612.0, 610.0, 609.0, 611.0, 615.0, 613.0, 613.0, 614.0, 619.0, 613.0, 607.0, 614.0, 612.0, 615.0, 616.0, 619.0, 613.0, 614.0, 585.0, 618.0, 602.0, 621.0, 623.0, 621.0, 617.0, 617.0, 615.0, 611.0, 619.0, 620.0, 613.0, 616.0, 613.0, 618.0, 612.0, 616.0]}, "slices": {}}, "EventTimestamp": "14-54-15"}