{"AcquisitionMatrixPE": 64, "AcquisitionNumber": 1, "AcquisitionTime": "15:03:9.725000", "BandwidthPerPixelPhaseEncode": 28.935, "BaseResolution": 64, "BodyPartExamined": "BRAIN", "CoilString": "HC2_4_6_7;SC", "ConsistencyInfo": "N4_VE11E_LATEST_20181129", "ConversionSoftware": "dcm2niix", "ConversionSoftwareVersion": "v1.0.20190902", "DerivedVendorReportedEchoSpacing": 0.000540003, "DeviceSerialNumber": "166182", "DwellTime": 3.4e-06, "EchoTime": 0.032, "EchoTrainLength": 64, "EffectiveEchoSpacing": 0.000540003, "FlipAngle": 40, "ImageOrientationPatientDICOM": [0.999325, -0.00261323, 0.0366435, 0.00174422, 0.999717, 0.023727], "ImageType": ["ORIGINAL", "PRIMARY", "M", "ND", "NORM", "MOSAIC"], "ImagingFrequency": 123.255, "InPlanePhaseEncodingDirectionDICOM": "COL", "InstitutionAddress": "PEARSE_STREET_._City_District_IE_D2", "InstitutionName": "TCIN", "InstitutionalDepartmentName": "MRI", "MRAcquisitionType": "2D", "MagneticFieldStrength": 3, "Manufacturer": "Siemens", "ManufacturersModelName": "Prisma", "Modality": "MR", "MultibandAccelerationFactor": 4, "PartialFourier": 1, "PatientPosition": "HFS", "PercentPhaseFOV": 100, "PhaseEncodingDirection": "j-", "PhaseEncodingSteps": 64, "PhaseResolution": 1, "PixelBandwidth": 2300, "ProcedureStepDescription": "Rhodri_Head_BOLD", "ProtocolName": "cmrr_mbep2d_Pictures_AP_RDS", "PulseSequenceDetails": "%SiemensSeq%_ep2d_bold", "ReceiveCoilActiveElements": "HC2,4,6,7;SC", "ReceiveCoilName": "SpecialPurpose_4", "ReconMatrixPE": 64, "RefLinesPE": 12, "RepetitionTime": 0.61, "SAR": 0.314965, "ScanOptions": "FS", "ScanningSequence": "EP", "SequenceName": "_epfid2d1_64", "SequenceVariant": "SK", "SeriesDescription": "cmrr_mbep2d_Pictures_AP_RDS", "SeriesNumber": 10, "ShimSetting": [-3626, -7420, 3825, 1196, 94, 141, -95, 19], "SliceThickness": 3, "SliceTiming": [0.2625, 0, 0.3275, 0.065, 0.3925, 0.13, 0.46, 0.1975, 0.525, 0.2625, 0, 0.3275, 0.065, 0.3925, 0.13, 0.46, 0.1975, 0.525, 0.2625, 0, 0.3275, 0.065, 0.3925, 0.13, 0.46, 0.1975, 0.525, 0.2625, 0, 0.3275, 0.065, 0.3925, 0.13, 0.46, 0.1975, 0.525], "SoftwareVersions": "syngo_MR_E11", "SpacingBetweenSlices": 3.3, "StationName": "AWP166182", "TaskName": "pictures", "TotalReadoutTime": 0.0340202, "TxRefAmp": 244.503, "dcmmeta_affine": [[-2.9979748725891113, 0.0052326698787510395, 0.1210939884185791, 95.71582794189453], [0.007839675061404705, 2.9991507530212402, 0.07803522795438766, -104.20244598388672], [0.10993054509162903, -0.07118090987205505, 3.296854019165039, -96.49951171875], [0.0, 0.0, 0.0, 1.0]], "dcmmeta_reorient_transform": [[0.0, -1.0, 0.0, 63.0], [1.0, 0.0, 0.0, 0.0], [0.0, 0.0, 1.0, 0.0], [0.0, 0.0, 0.0, 1.0]], "dcmmeta_shape": [64, 64, 36, 510], "dcmmeta_slice_dim": 2, "dcmmeta_version": 0.6, "global": {"const": {"AcquisitionMatrix": [64, 0, 0, 64], "AngioFlag": "N", "BitsAllocated": 16, "BitsStored": 12, "BodyPartExamined": "BRAIN", "Columns": 384, "EchoNumbers": 1, "EchoTime": 32.0, "EchoTrainLength": 64, "FlipAngle": 40.0, "HighBit": 11, "ImageOrientationPatient": [0.99932498410914, -0.0026132251382, 0.03664351497393, 0.00174422328555, 0.99971695423998, 0.02372696968153], "ImagePositionPatient": [-576.55870534681, -563.35384650387, -129.96173839494], "ImageType": ["ORIGINAL", "PRIMARY", "M", "ND", "NORM", "MOSAIC"], "ImagedNucleus": "1H", "ImagingFrequency": 123.254791, "InPlanePhaseEncodingDirection": "COL", "MRAcquisitionType": "2D", "MagneticFieldStrength": 3.0, "Manufacturer": "SIEMENS", "ManufacturerModelName": "Prisma", "Modality": "MR", "NumberOfAverages": 1.0, "NumberOfPhaseEncodingSteps": 64, "PercentPhaseFieldOfView": 100.0, "PercentSampling": 100.0, "PerformedProcedureStepStartTime": "143856.713000", "PhotometricInterpretation": "MONOCHROME2", "PixelBandwidth": 2300.0, "PixelRepresentation": 0, "PixelSpacing": [3.0, 3.0], "ProtocolName": "cmrr_mbep2d_Pictures_AP_RDS", "RepetitionTime": 610.0, "Rows": 384, "SAR": 0.31496473952919, "SamplesPerPixel": 1, "ScanOptions": "FS", "ScanningSequence": "EP", "SequenceName": "*epfid2d1_64", "SequenceVariant": "SK", "SeriesDescription": "cmrr_mbep2d_Pictures_AP_RDS", "SeriesNumber": 10, "SeriesTime": "150329.869000", "SliceLocation": -95.359287286405, "SliceThickness": 3.0, "SmallestImagePixelValue": 0, "SoftwareVersions": "syngo MR E11", "SpacingBetweenSlices": 3.3000000047767, "SpecificCharacterSet": "ISO_IR 100", "StudyID": "1", "StudyTime": "143856.630000", "TransmitCoilName": "Body", "VariableFlipAngleFlag": "N", "WindowCenterWidthExplanation": "Algo1"}, "slices": {}}, "time": {"samples": {"AcquisitionNumber": [1, 2, 3, 4, 5, 6, 7, 8, 9, 10, 11, 12, 13, 14, 15, 16, 17, 18, 19, 20, 21, 22, 23, 24, 25, 26, 27, 28, 29, 30, 31, 32, 33, 34, 35, 36, 37, 38, 39, 40, 41, 42, 43, 44, 45, 46, 47, 48, 49, 50, 51, 52, 53, 54, 55, 56, 57, 58, 59, 60, 61, 62, 63, 64, 65, 66, 67, 68, 69, 70, 71, 72, 73, 74, 75, 76, 77, 78, 79, 80, 81, 82, 83, 84, 85, 86, 87, 88, 89, 90, 91, 92, 93, 94, 95, 96, 97, 98, 99, 100, 101, 102, 103, 104, 105, 106, 107, 108, 109, 110, 111, 112, 113, 114, 115, 116, 117, 118, 119, 120, 121, 122, 123, 124, 125, 126, 127, 128, 129, 130, 131, 132, 133, 134, 135, 136, 137, 138, 139, 140, 141, 142, 143, 144, 145, 146, 147, 148, 149, 150, 151, 152, 153, 154, 155, 156, 157, 158, 159, 160, 161, 162, 163, 164, 165, 166, 167, 168, 169, 170, 171, 172, 173, 174, 175, 176, 177, 178, 179, 180, 181, 182, 183, 184, 185, 186, 187, 188, 189, 190, 191, 192, 193, 194, 195, 196, 197, 198, 199, 200, 201, 202, 203, 204, 205, 206, 207, 208, 209, 210, 211, 212, 213, 214, 215, 216, 217, 218, 219, 220, 221, 222, 223, 224, 225, 226, 227, 228, 229, 230, 231, 232, 233, 234, 235, 236, 237, 238, 239, 240, 241, 242, 243, 244, 245, 246, 247, 248, 249, 250, 251, 252, 253, 254, 255, 256, 257, 258, 259, 260, 261, 262, 263, 264, 265, 266, 267, 268, 269, 270, 271, 272, 273, 274, 275, 276, 277, 278, 279, 280, 281, 282, 283, 284, 285, 286, 287, 288, 289, 290, 291, 292, 293, 294, 295, 296, 297, 298, 299, 300, 301, 302, 303, 304, 305, 306, 307, 308, 309, 310, 311, 312, 313, 314, 315, 316, 317, 318, 319, 320, 321, 322, 323, 324, 325, 326, 327, 328, 329, 330, 331, 332, 333, 334, 335, 336, 337, 338, 339, 340, 341, 342, 343, 344, 345, 346, 347, 348, 349, 350, 351, 352, 353, 354, 355, 356, 357, 358, 359, 360, 361, 362, 363, 364, 365, 366, 367, 368, 369, 370, 371, 372, 373, 374, 375, 376, 377, 378, 379, 380, 381, 382, 383, 384, 385, 386, 387, 388, 389, 390, 391, 392, 393, 394, 395, 396, 397, 398, 399, 400, 401, 402, 403, 404, 405, 406, 407, 408, 409, 410, 411, 412, 413, 414, 415, 416, 417, 418, 419, 420, 421, 422, 423, 424, 425, 426, 427, 428, 429, 430, 431, 432, 433, 434, 435, 436, 437, 438, 439, 440, 441, 442, 443, 444, 445, 446, 447, 448, 449, 450, 451, 452, 453, 454, 455, 456, 457, 458, 459, 460, 461, 462, 463, 464, 465, 466, 467, 468, 469, 470, 471, 472, 473, 474, 475, 476, 477, 478, 479, 480, 481, 482, 483, 484, 485, 486, 487, 488, 489, 490, 491, 492, 493, 494, 495, 496, 497, 498, 499, 500, 501, 502, 503, 504, 505, 506, 507, 508, 509, 510], "AcquisitionTime": ["150309.725000", "150310.335000", "150310.945000", "150311.555000", "150312.165000", "150312.775000", "150313.385000", "150313.995000", "150314.605000", "150315.215000", "150315.825000", "150316.435000", "150317.045000", "150317.655000", "150318.265000", "150318.875000", "150319.485000", "150320.095000", "150320.705000", "150321.315000", "150321.925000", "150322.535000", "150323.145000", "150323.755000", "150324.365000", "150324.975000", "150325.585000", "150326.195000", "150326.805000", "150327.415000", "150328.025000", "150328.635000", "150329.245000", "150329.855000", "150330.465000", "150331.075000", "150331.685000", "150332.295000", "150332.905000", "150333.515000", "150334.125000", "150334.735000", "150335.345000", "150335.955000", "150336.565000", "150337.175000", "150337.785000", "150338.395000", "150339.005000", "150339.615000", "150340.225000", "150340.835000", "150341.445000", "150342.055000", "150342.665000", "150343.275000", "150343.885000", "150344.495000", "150345.105000", "150345.715000", "150346.325000", "150346.935000", "150347.545000", "150348.155000", "150348.765000", "150349.375000", "150349.985000", "150350.595000", "150351.205000", "150351.815000", "150352.425000", "150353.035000", "150353.645000", "150354.255000", "150354.865000", "150355.475000", "150356.085000", "150356.695000", "150357.305000", "150357.915000", "150358.525000", "150359.135000", "150359.745000", "150400.355000", "150400.965000", "150401.575000", "150402.185000", "150402.795000", "150403.405000", "150404.015000", "150404.625000", "150405.235000", "150405.845000", "150406.455000", "150407.065000", "150407.675000", "150408.285000", "150408.895000", "150409.505000", "150410.115000", "150410.725000", "150411.335000", "150411.945000", "150412.555000", "150413.165000", "150413.775000", "150414.385000", "150414.995000", "150415.605000", "150416.215000", "150416.825000", "150417.435000", "150418.045000", "150418.655000", "150419.265000", "150419.875000", "150420.485000", "150421.095000", "150421.705000", "150422.315000", "150422.925000", "150423.535000", "150424.145000", "150424.755000", "150425.365000", "150425.975000", "150426.585000", "150427.195000", "150427.805000", "150428.415000", "150429.025000", "150429.635000", "150430.245000", "150430.855000", "150431.465000", "150432.075000", "150432.685000", "150433.295000", "150433.905000", "150434.515000", "150435.125000", "150435.735000", "150436.345000", "150436.955000", "150437.565000", "150438.175000", "150438.785000", "150439.395000", "150440.005000", "150440.615000", "150441.225000", "150441.835000", "150442.445000", "150443.055000", "150443.665000", "150444.275000", "150444.885000", "150445.495000", "150446.105000", "150446.715000", "150447.325000", "150447.935000", "150448.545000", "150449.155000", "150449.765000", "150450.375000", "150450.985000", "150451.595000", "150452.205000", "150452.815000", "150453.425000", "150454.035000", "150454.645000", "150455.255000", "150455.865000", "150456.475000", "150457.085000", "150457.695000", "150458.305000", "150458.915000", "150459.525000", "150500.135000", "150500.745000", "150501.355000", "150501.965000", "150502.575000", "150503.185000", "150503.795000", "150504.405000", "150505.015000", "150505.625000", "150506.235000", "150506.845000", "150507.455000", "150508.065000", "150508.675000", "150509.285000", "150509.895000", "150510.505000", "150511.115000", "150511.725000", "150512.335000", "150512.945000", "150513.555000", "150514.165000", "150514.775000", "150515.385000", "150515.995000", "150516.605000", "150517.215000", "150517.825000", "150518.435000", "150519.045000", "150519.655000", "150520.265000", "150520.875000", "150521.485000", "150522.095000", "150522.705000", "150523.315000", "150523.925000", "150524.535000", "150525.145000", "150525.755000", "150526.365000", "150526.975000", "150527.585000", "150528.195000", "150528.805000", "150529.415000", "150530.025000", "150530.635000", "150531.245000", "150531.855000", "150532.465000", "150533.075000", "150533.685000", "150534.295000", "150534.905000", "150535.515000", "150536.125000", "150536.735000", "150537.345000", "150537.955000", "150538.565000", "150539.175000", "150539.785000", "150540.395000", "150541.005000", "150541.615000", "150542.225000", "150542.835000", "150543.445000", "150544.055000", "150544.665000", "150545.275000", "150545.885000", "150546.495000", "150547.105000", "150547.715000", "150548.325000", "150548.935000", "150549.545000", "150550.155000", "150550.765000", "150551.375000", "150551.985000", "150552.595000", "150553.205000", "150553.815000", "150554.425000", "150555.035000", "150555.645000", "150556.255000", "150556.865000", "150557.475000", "150558.085000", "150558.695000", "150559.305000", "150559.915000", "150600.525000", "150601.135000", "150601.745000", "150602.355000", "150602.965000", "150603.575000", "150604.185000", "150604.795000", "150605.405000", "150606.015000", "150606.625000", "150607.235000", "150607.845000", "150608.455000", "150609.065000", "150609.675000", "150610.285000", "150610.895000", "150611.505000", "150612.115000", "150612.725000", "150613.335000", "150613.945000", "150614.555000", "150615.165000", "150615.775000", "150616.385000", "150616.995000", "150617.605000", "150618.215000", "150618.825000", "150619.435000", "150620.045000", "150620.655000", "150621.265000", "150621.875000", "150622.485000", "150623.095000", "150623.705000", "150624.315000", "150624.925000", "150625.535000", "150626.145000", "150626.755000", "150627.365000", "150627.975000", "150628.585000", "150629.195000", "150629.805000", "150630.415000", "150631.025000", "150631.635000", "150632.245000", "150632.855000", "150633.465000", "150634.075000", "150634.685000", "150635.295000", "150635.905000", "150636.515000", "150637.125000", "150637.735000", "150638.345000", "150638.955000", "150639.565000", "150640.175000", "150640.785000", "150641.395000", "150642.005000", "150642.615000", "150643.225000", "150643.835000", "150644.445000", "150645.055000", "150645.665000", "150646.275000", "150646.885000", "150647.495000", "150648.105000", "150648.715000", "150649.325000", "150649.935000", "150650.545000", "150651.155000", "150651.765000", "150652.375000", "150652.985000", "150653.595000", "150654.205000", "150654.815000", "150655.425000", "150656.035000", "150656.645000", "150657.255000", "150657.865000", "150658.475000", "150659.085000", "150659.695000", "150700.305000", "150700.915000", "150701.525000", "150702.135000", "150702.745000", "150703.355000", "150703.965000", "150704.575000", "150705.185000", "150705.795000", "150706.405000", "150707.015000", "150707.625000", "150708.235000", "150708.845000", "150709.455000", "150710.065000", "150710.675000", "150711.285000", "150711.895000", "150712.505000", "150713.115000", "150713.725000", "150714.335000", "150714.945000", "150715.555000", "150716.165000", "150716.775000", "150717.385000", "150717.995000", "150718.605000", "150719.215000", "150719.825000", "150720.435000", "150721.045000", "150721.655000", "150722.265000", "150722.875000", "150723.485000", "150724.095000", "150724.705000", "150725.315000", "150725.925000", "150726.535000", "150727.145000", "150727.755000", "150728.365000", "150728.975000", "150729.585000", "150730.195000", "150730.805000", "150731.415000", "150732.025000", "150732.635000", "150733.245000", "150733.855000", "150734.465000", "150735.075000", "150735.685000", "150736.295000", "150736.905000", "150737.515000", "150738.125000", "150738.735000", "150739.345000", "150739.955000", "150740.565000", "150741.175000", "150741.785000", "150742.395000", "150743.005000", "150743.615000", "150744.225000", "150744.835000", "150745.445000", "150746.055000", "150746.665000", "150747.275000", "150747.885000", "150748.495000", "150749.105000", "150749.715000", "150750.325000", "150750.935000", "150751.545000", "150752.155000", "150752.765000", "150753.375000", "150753.985000", "150754.595000", "150755.205000", "150755.815000", "150756.425000", "150757.035000", "150757.645000", "150758.255000", "150758.865000", "150759.475000", "150800.085000", "150800.695000", "150801.305000", "150801.915000", "150802.525000", "150803.135000", "150803.745000", "150804.355000", "150804.965000", "150805.575000", "150806.185000", "150806.795000", "150807.405000", "150808.015000", "150808.625000", "150809.235000", "150809.845000", "150810.455000", "150811.065000", "150811.675000", "150812.285000", "150812.895000", "150813.505000", "150814.115000", "150814.725000", "150815.335000", "150815.945000", "150816.555000", "150817.165000", "150817.775000", "150818.385000", "150818.995000", "150819.605000", "150820.215000"], "ContentTime": ["150329.872000", "150329.876000", "150329.878000", "150329.887000", "150329.889000", "150329.891000", "150329.894000", "150329.896000", "150329.898000", "150329.901000", "150329.903000", "150329.906000", "150329.908000", "150329.910000", "150329.913000", "150329.915000", "150329.918000", "150329.920000", "150329.927000", "150329.929000", "150329.931000", "150329.934000", "150329.936000", "150329.939000", "150329.941000", "150329.943000", "150329.946000", "150329.948000", "150329.951000", "150329.953000", "150329.955000", "150329.958000", "150349.868000", "150349.871000", "150349.873000", "150349.876000", "150349.878000", "150349.881000", "150349.883000", "150349.886000", "150349.889000", "150349.891000", "150349.893000", "150349.901000", "150349.904000", "150349.906000", "150349.908000", "150349.911000", "150349.913000", "150349.916000", "150349.918000", "150349.921000", "150349.923000", "150349.925000", "150349.928000", "150349.930000", "150349.933000", "150349.935000", "150349.937000", "150349.940000", "150349.942000", "150349.945000", "150349.947000", "150349.949000", "150349.952000", "150409.867000", "150409.870000", "150409.872000", "150409.875000", "150409.877000", "150409.879000", "150409.882000", "150409.884000", "150409.886000", "150409.889000", "150409.891000", "150409.894000", "150409.896000", "150409.898000", "150409.901000", "150409.903000", "150409.906000", "150409.908000", "150409.911000", "150409.913000", "150409.915000", "150409.918000", "150409.920000", "150409.923000", "150409.925000", "150409.927000", "150409.930000", "150409.932000", "150409.935000", "150409.937000", "150409.939000", "150409.942000", "150429.867000", "150429.870000", "150429.872000", "150429.875000", "150429.877000", "150429.879000", "150429.882000", "150429.884000", "150429.887000", "150429.889000", "150429.891000", "150429.898000", "150429.901000", "150429.903000", "150429.906000", "150429.908000", "150429.910000", "150429.914000", "150429.916000", "150429.918000", "150429.921000", "150429.923000", "150429.926000", "150429.928000", "150429.931000", "150429.933000", "150429.935000", "150429.938000", "150429.940000", "150429.943000", "150429.945000", "150429.947000", "150429.950000", "150449.867000", "150449.870000", "150449.872000", "150449.875000", "150449.877000", "150449.880000", "150449.882000", "150449.885000", "150449.887000", "150449.889000", "150449.892000", "150449.894000", "150449.896000", "150449.899000", "150449.901000", "150449.903000", "150449.906000", "150449.908000", "150449.911000", "150449.913000", "150449.915000", "150449.918000", "150449.920000", "150449.922000", "150449.925000", "150449.927000", "150449.930000", "150449.932000", "150449.935000", "150449.937000", "150449.939000", "150449.942000", "150449.944000", "150509.867000", "150509.870000", "150509.879000", "150509.881000", "150509.884000", "150509.886000", "150509.889000", "150509.891000", "150509.893000", "150509.896000", "150509.898000", "150509.900000", "150509.903000", "150509.905000", "150509.908000", "150509.910000", "150509.912000", "150509.915000", "150509.917000", "150509.919000", "150509.922000", "150509.924000", "150509.927000", "150509.929000", "150509.932000", "150509.934000", "150509.936000", "150509.939000", "150509.941000", "150509.944000", "150509.946000", "150509.948000", "150509.951000", "150529.868000", "150529.871000", "150529.874000", "150529.876000", "150529.878000", "150529.881000", "150529.883000", "150529.886000", "150529.888000", "150529.891000", "150529.893000", "150529.895000", "150529.898000", "150529.900000", "150529.903000", "150529.905000", "150529.907000", "150529.910000", "150529.912000", "150529.915000", "150529.917000", "150529.920000", "150529.927000", "150529.929000", "150529.932000", "150529.934000", "150529.936000", "150529.939000", "150529.941000", "150529.944000", "150529.946000", "150529.948000", "150529.951000", "150549.868000", "150549.874000", "150549.876000", "150549.879000", "150549.881000", "150549.884000", "150549.886000", "150549.888000", "150549.891000", "150549.893000", "150549.895000", "150549.898000", "150549.900000", "150549.903000", "150549.905000", "150549.907000", "150549.910000", "150549.912000", "150549.914000", "150549.917000", "150549.920000", "150549.922000", "150549.925000", "150549.928000", "150549.930000", "150549.932000", "150549.935000", "150549.937000", "150549.940000", "150549.942000", "150549.944000", "150549.947000", "150609.868000", "150609.871000", "150609.873000", "150609.876000", "150609.878000", "150609.881000", "150609.883000", "150609.885000", "150609.888000", "150609.890000", "150609.893000", "150609.895000", "150609.897000", "150609.900000", "150609.902000", "150609.905000", "150609.908000", "150609.910000", "150609.913000", "150609.915000", "150609.917000", "150609.920000", "150609.922000", "150609.925000", "150609.927000", "150609.929000", "150609.932000", "150609.934000", "150609.937000", "150609.939000", "150609.941000", "150609.944000", "150609.946000", "150629.882000", "150629.885000", "150629.887000", "150629.889000", "150629.892000", "150629.894000", "150629.897000", "150629.899000", "150629.902000", "150629.904000", "150629.907000", "150629.909000", "150629.912000", "150629.914000", "150629.917000", "150629.919000", "150629.922000", "150629.924000", "150629.927000", "150629.929000", "150629.931000", "150629.934000", "150629.936000", "150629.939000", "150629.941000", "150629.943000", "150629.946000", "150629.948000", "150629.950000", "150629.953000", "150629.955000", "150629.958000", "150629.960000", "150649.867000", "150649.870000", "150649.872000", "150649.875000", "150649.877000", "150649.880000", "150649.882000", "150649.885000", "150649.887000", "150649.889000", "150649.892000", "150649.894000", "150649.897000", "150649.899000", "150649.902000", "150649.904000", "150649.906000", "150649.909000", "150649.911000", "150649.914000", "150649.916000", "150649.918000", "150649.921000", "150649.923000", "150649.925000", "150649.928000", "150649.930000", "150649.933000", "150649.935000", "150649.937000", "150649.940000", "150649.942000", "150649.945000", "150709.867000", "150709.870000", "150709.872000", "150709.875000", "150709.877000", "150709.879000", "150709.882000", "150709.884000", "150709.886000", "150709.889000", "150709.891000", "150709.894000", "150709.896000", "150709.898000", "150709.901000", "150709.903000", "150709.906000", "150709.908000", "150709.910000", "150709.913000", "150709.915000", "150709.918000", "150709.920000", "150709.922000", "150709.925000", "150709.927000", "150709.930000", "150709.932000", "150709.934000", "150709.937000", "150709.939000", "150709.942000", "150709.944000", "150729.867000", "150729.870000", "150729.872000", "150729.875000", "150729.877000", "150729.879000", "150729.882000", "150729.884000", "150729.887000", "150729.889000", "150729.891000", "150729.894000", "150729.896000", "150729.899000", "150729.901000", "150729.903000", "150729.906000", "150729.908000", "150729.911000", "150729.913000", "150729.916000", "150729.918000", "150729.920000", "150729.923000", "150729.925000", "150729.927000", "150729.930000", "150729.932000", "150729.935000", "150729.937000", "150729.939000", "150729.942000", "150749.868000", "150749.871000", "150749.873000", "150749.876000", "150749.878000", "150749.880000", "150749.883000", "150749.885000", "150749.887000", "150749.890000", "150749.892000", "150749.895000", "150749.897000", "150749.899000", "150749.902000", "150749.904000", "150749.906000", "150749.909000", "150749.911000", "150749.914000", "150749.916000", "150749.918000", "150749.921000", "150749.923000", "150749.925000", "150749.928000", "150749.930000", "150749.933000", "150749.935000", "150749.937000", "150749.940000", "150749.942000", "150749.945000", "150809.868000", "150809.871000", "150809.873000", "150809.876000", "150809.878000", "150809.880000", "150809.883000", "150809.890000", "150809.892000", "150809.894000", "150809.897000", "150809.899000", "150809.902000", "150809.904000", "150809.906000", "150809.909000", "150809.911000", "150809.914000", "150809.916000", "150809.918000", "150809.921000", "150809.923000", "150809.925000", "150809.928000", "150809.930000", "150809.933000", "150809.935000", "150809.937000", "150809.940000", "150809.942000", "150809.944000", "150809.947000", "150809.949000", "150821.231000", "150821.233000", "150821.236000", "150821.238000", "150821.241000", "150821.243000", "150821.246000", "150821.249000", "150821.252000", "150821.254000", "150821.257000", "150821.260000", "150821.262000", "150821.264000", "150821.267000", "150821.270000", "150821.272000", "150821.275000", "150821.278000"], "InstanceCreationTime": ["150329.872000", "150329.876000", "150329.878000", "150329.887000", "150329.889000", "150329.891000", "150329.894000", "150329.896000", "150329.898000", "150329.901000", "150329.903000", "150329.906000", "150329.908000", "150329.910000", "150329.913000", "150329.915000", "150329.918000", "150329.920000", "150329.927000", "150329.929000", "150329.931000", "150329.934000", "150329.936000", "150329.939000", "150329.941000", "150329.943000", "150329.946000", "150329.948000", "150329.951000", "150329.953000", "150329.955000", "150329.958000", "150349.868000", "150349.871000", "150349.873000", "150349.876000", "150349.878000", "150349.881000", "150349.883000", "150349.886000", "150349.889000", "150349.891000", "150349.893000", "150349.901000", "150349.904000", "150349.906000", "150349.908000", "150349.911000", "150349.913000", "150349.916000", "150349.918000", "150349.921000", "150349.923000", "150349.925000", "150349.928000", "150349.930000", "150349.933000", "150349.935000", "150349.937000", "150349.940000", "150349.942000", "150349.945000", "150349.947000", "150349.949000", "150349.952000", "150409.867000", "150409.870000", "150409.872000", "150409.875000", "150409.877000", "150409.879000", "150409.882000", "150409.884000", "150409.886000", "150409.889000", "150409.891000", "150409.894000", "150409.896000", "150409.898000", "150409.901000", "150409.903000", "150409.906000", "150409.908000", "150409.911000", "150409.913000", "150409.915000", "150409.918000", "150409.920000", "150409.923000", "150409.925000", "150409.927000", "150409.930000", "150409.932000", "150409.935000", "150409.937000", "150409.939000", "150409.942000", "150429.867000", "150429.870000", "150429.872000", "150429.875000", "150429.877000", "150429.879000", "150429.882000", "150429.884000", "150429.887000", "150429.889000", "150429.891000", "150429.898000", "150429.901000", "150429.903000", "150429.906000", "150429.908000", "150429.910000", "150429.914000", "150429.916000", "150429.918000", "150429.921000", "150429.923000", "150429.926000", "150429.928000", "150429.931000", "150429.933000", "150429.935000", "150429.938000", "150429.940000", "150429.943000", "150429.945000", "150429.947000", "150429.950000", "150449.867000", "150449.870000", "150449.872000", "150449.875000", "150449.877000", "150449.880000", "150449.882000", "150449.885000", "150449.887000", "150449.889000", "150449.892000", "150449.894000", "150449.896000", "150449.899000", "150449.901000", "150449.903000", "150449.906000", "150449.908000", "150449.911000", "150449.913000", "150449.915000", "150449.918000", "150449.920000", "150449.922000", "150449.925000", "150449.927000", "150449.930000", "150449.932000", "150449.935000", "150449.937000", "150449.939000", "150449.942000", "150449.944000", "150509.867000", "150509.870000", "150509.879000", "150509.881000", "150509.884000", "150509.886000", "150509.889000", "150509.891000", "150509.893000", "150509.896000", "150509.898000", "150509.900000", "150509.903000", "150509.905000", "150509.908000", "150509.910000", "150509.912000", "150509.915000", "150509.917000", "150509.919000", "150509.922000", "150509.924000", "150509.927000", "150509.929000", "150509.932000", "150509.934000", "150509.936000", "150509.939000", "150509.941000", "150509.944000", "150509.946000", "150509.948000", "150509.951000", "150529.868000", "150529.871000", "150529.874000", "150529.876000", "150529.878000", "150529.881000", "150529.883000", "150529.886000", "150529.888000", "150529.891000", "150529.893000", "150529.895000", "150529.898000", "150529.900000", "150529.903000", "150529.905000", "150529.907000", "150529.910000", "150529.912000", "150529.915000", "150529.917000", "150529.920000", "150529.927000", "150529.929000", "150529.932000", "150529.934000", "150529.936000", "150529.939000", "150529.941000", "150529.944000", "150529.946000", "150529.948000", "150529.951000", "150549.868000", "150549.874000", "150549.876000", "150549.879000", "150549.881000", "150549.884000", "150549.886000", "150549.888000", "150549.891000", "150549.893000", "150549.895000", "150549.898000", "150549.900000", "150549.903000", "150549.905000", "150549.907000", "150549.910000", "150549.912000", "150549.914000", "150549.917000", "150549.920000", "150549.922000", "150549.925000", "150549.928000", "150549.930000", "150549.932000", "150549.935000", "150549.937000", "150549.940000", "150549.942000", "150549.944000", "150549.947000", "150609.868000", "150609.871000", "150609.873000", "150609.876000", "150609.878000", "150609.881000", "150609.883000", "150609.885000", "150609.888000", "150609.890000", "150609.893000", "150609.895000", "150609.897000", "150609.900000", "150609.902000", "150609.905000", "150609.908000", "150609.910000", "150609.913000", "150609.915000", "150609.917000", "150609.920000", "150609.922000", "150609.925000", "150609.927000", "150609.929000", "150609.932000", "150609.934000", "150609.937000", "150609.939000", "150609.941000", "150609.944000", "150609.946000", "150629.882000", "150629.885000", "150629.887000", "150629.889000", "150629.892000", "150629.894000", "150629.897000", "150629.899000", "150629.902000", "150629.904000", "150629.907000", "150629.909000", "150629.912000", "150629.914000", "150629.917000", "150629.919000", "150629.922000", "150629.924000", "150629.927000", "150629.929000", "150629.931000", "150629.934000", "150629.936000", "150629.939000", "150629.941000", "150629.943000", "150629.946000", "150629.948000", "150629.950000", "150629.953000", "150629.955000", "150629.958000", "150629.960000", "150649.867000", "150649.870000", "15064