{"AcquisitionMatrixPE": 64, "AcquisitionNumber": 1, "AcquisitionTime": "14:27:15.000000", "BandwidthPerPixelPhaseEncode": 28.935, "BaseResolution": 64, "BodyPartExamined": "BRAIN", "CoilString": "HC2_4_6_7", "ConsistencyInfo": "N4_VE11E_LATEST_20181129", "ConversionSoftware": "dcm2niix", "ConversionSoftwareVersion": "v1.0.20190902", "DerivedVendorReportedEchoSpacing": 0.000540003, "DeviceSerialNumber": "166182", "DwellTime": 3.4e-06, "EchoTime": 0.032, "EchoTrainLength": 64, "EffectiveEchoSpacing": 0.000540003, "FlipAngle": 40, "ImageOrientationPatientDICOM": [0.998704, 0.0508467, 0.00209765, -0.0502427, 0.991717, -0.118205], "ImageType": ["ORIGINAL", "PRIMARY", "M", "ND", "NORM", "MOSAIC"], "ImagingFrequency": 123.256, "InPlanePhaseEncodingDirectionDICOM": "COL", "InstitutionAddress": "PEARSE_STREET_._City_District_IE_D2", "InstitutionName": "TCIN", "InstitutionalDepartmentName": "MRI", "MRAcquisitionType": "2D", "MagneticFieldStrength": 3, "Manufacturer": "Siemens", "ManufacturersModelName": "Prisma", "Modality": "MR", "MultibandAccelerationFactor": 4, "PartialFourier": 1, "PatientPosition": "HFS", "PercentPhaseFOV": 100, "PhaseEncodingDirection": "j-", "PhaseEncodingSteps": 64, "PhaseResolution": 1, "PixelBandwidth": 2300, "ProcedureStepDescription": "Rhodri_Head_BOLD", "ProtocolName": "cmrr_mbep2d_Pictures_AP_RDS", "PulseSequenceDetails": "%SiemensSeq%_ep2d_bold", "ReceiveCoilActiveElements": "HC2,4,6,7", "ReceiveCoilName": "HeadNeck_64", "ReconMatrixPE": 64, "RefLinesPE": 12, "RepetitionTime": 0.61, "SAR": 0.286081, "ScanOptions": "FS", "ScanningSequence": "EP", "SequenceName": "_epfid2d1_64", "SequenceVariant": "SK", "SeriesDescription": "cmrr_mbep2d_Pictures_AP_RDS", "SeriesNumber": 5, "ShimSetting": [-3702, -7550, 3890, 866, 19, 559, 452, -31], "SliceThickness": 3, "SliceTiming": [0.2625, 0, 0.3275, 0.065, 0.3925, 0.1325, 0.46, 0.1975, 0.525, 0.2625, 0, 0.3275, 0.065, 0.3925, 0.1325, 0.46, 0.1975, 0.525, 0.2625, 0, 0.3275, 0.065, 0.3925, 0.1325, 0.46, 0.1975, 0.525, 0.2625, 0, 0.3275, 0.065, 0.3925, 0.1325, 0.46, 0.1975, 0.525], "SoftwareVersions": "syngo_MR_E11", "SpacingBetweenSlices": 3.3, "StationName": "AWP166182", "TaskName": "pictures", "TotalReadoutTime": 0.0340202, "TxRefAmp": 257.17, "dcmmeta_affine": [[-2.996112823486328, -0.15072795748710632, 0.02669895626604557, 97.29521179199219], [-0.1525399535894394, 2.975152015686035, -0.38922232389450073, -82.00991821289062], [0.006292959675192833, 0.35461413860321045, 3.276857376098633, -98.10828399658203], [0.0, 0.0, 0.0, 1.0]], "dcmmeta_reorient_transform": [[0.0, -1.0, 0.0, 63.0], [1.0, 0.0, 0.0, 0.0], [0.0, 0.0, 1.0, 0.0], [0.0, 0.0, 0.0, 1.0]], "dcmmeta_shape": [64, 64, 36, 510], "dcmmeta_slice_dim": 2, "dcmmeta_version": 0.6, "global": {"const": {"AcquisitionMatrix": [64, 0, 0, 64], "AngioFlag": "N", "BitsAllocated": 16, "BitsStored": 12, "BodyPartExamined": "BRAIN", "Columns": 384, "EchoNumbers": 1, "EchoTime": 32.0, "EchoTrainLength": 64, "FlipAngle": 40.0, "HighBit": 11, "ImageOrientationPatient": [0.9987042695298, 0.05084665056692, 0.002097653229, -0.0502426544996, 0.99171735983223, -0.1182047117344], "ImagePositionPatient": [-543.06092504552, -605.85538860944, -20.036206066015], "ImageType": ["ORIGINAL", "PRIMARY", "M", "ND", "NORM", "MOSAIC"], "ImagedNucleus": "1H", "ImagingFrequency": 123.255614, "InPlanePhaseEncodingDirection": "COL", "MRAcquisitionType": "2D", "MagneticFieldStrength": 3.0, "Manufacturer": "SIEMENS", "ManufacturerModelName": "Prisma", "Modality": "MR", "NumberOfAverages": 1.0, "NumberOfPhaseEncodingSteps": 64, "PercentPhaseFieldOfView": 100.0, "PercentSampling": 100.0, "PerformedProcedureStepStartTime": "141815.040000", "PhotometricInterpretation": "MONOCHROME2", "PixelBandwidth": 2300.0, "PixelRepresentation": 0, "PixelSpacing": [3.0, 3.0], "ProtocolName": "cmrr_mbep2d_Pictures_AP_RDS", "RepetitionTime": 610.0, "Rows": 384, "SAR": 0.286080773309, "SamplesPerPixel": 1, "ScanOptions": "FS", "ScanningSequence": "EP", "SequenceName": "*epfid2d1_64", "SequenceVariant": "SK", "SeriesDescription": "cmrr_mbep2d_Pictures_AP_RDS", "SeriesNumber": 5, "SeriesTime": "142746.260000", "SliceLocation": -86.96032375564, "SliceThickness": 3.0, "SmallestImagePixelValue": 0, "SoftwareVersions": "syngo MR E11", "SpacingBetweenSlices": 3.3000001147389, "SpecificCharacterSet": "ISO_IR 100", "StudyID": "1", "StudyTime": "141814.973000", "TransmitCoilName": "Body", "VariableFlipAngleFlag": "N", "WindowCenterWidthExplanation": "Algo1"}, "slices": {}}, "time": {"samples": {"AcquisitionNumber": [1, 2, 3, 4, 5, 6, 7, 8, 9, 10, 11, 12, 13, 14, 15, 16, 17, 18, 19, 20, 21, 22, 23, 24, 25, 26, 27, 28, 29, 30, 31, 32, 33, 34, 35, 36, 37, 38, 39, 40, 41, 42, 43, 44, 45, 46, 47, 48, 49, 50, 51, 52, 53, 54, 55, 56, 57, 58, 59, 60, 61, 62, 63, 64, 65, 66, 67, 68, 69, 70, 71, 72, 73, 74, 75, 76, 77, 78, 79, 80, 81, 82, 83, 84, 85, 86, 87, 88, 89, 90, 91, 92, 93, 94, 95, 96, 97, 98, 99, 100, 101, 102, 103, 104, 105, 106, 107, 108, 109, 110, 111, 112, 113, 114, 115, 116, 117, 118, 119, 120, 121, 122, 123, 124, 125, 126, 127, 128, 129, 130, 131, 132, 133, 134, 135, 136, 137, 138, 139, 140, 141, 142, 143, 144, 145, 146, 147, 148, 149, 150, 151, 152, 153, 154, 155, 156, 157, 158, 159, 160, 161, 162, 163, 164, 165, 166, 167, 168, 169, 170, 171, 172, 173, 174, 175, 176, 177, 178, 179, 180, 181, 182, 183, 184, 185, 186, 187, 188, 189, 190, 191, 192, 193, 194, 195, 196, 197, 198, 199, 200, 201, 202, 203, 204, 205, 206, 207, 208, 209, 210, 211, 212, 213, 214, 215, 216, 217, 218, 219, 220, 221, 222, 223, 224, 225, 226, 227, 228, 229, 230, 231, 232, 233, 234, 235, 236, 237, 238, 239, 240, 241, 242, 243, 244, 245, 246, 247, 248, 249, 250, 251, 252, 253, 254, 255, 256, 257, 258, 259, 260, 261, 262, 263, 264, 265, 266, 267, 268, 269, 270, 271, 272, 273, 274, 275, 276, 277, 278, 279, 280, 281, 282, 283, 284, 285, 286, 287, 288, 289, 290, 291, 292, 293, 294, 295, 296, 297, 298, 299, 300, 301, 302, 303, 304, 305, 306, 307, 308, 309, 310, 311, 312, 313, 314, 315, 316, 317, 318, 319, 320, 321, 322, 323, 324, 325, 326, 327, 328, 329, 330, 331, 332, 333, 334, 335, 336, 337, 338, 339, 340, 341, 342, 343, 344, 345, 346, 347, 348, 349, 350, 351, 352, 353, 354, 355, 356, 357, 358, 359, 360, 361, 362, 363, 364, 365, 366, 367, 368, 369, 370, 371, 372, 373, 374, 375, 376, 377, 378, 379, 380, 381, 382, 383, 384, 385, 386, 387, 388, 389, 390, 391, 392, 393, 394, 395, 396, 397, 398, 399, 400, 401, 402, 403, 404, 405, 406, 407, 408, 409, 410, 411, 412, 413, 414, 415, 416, 417, 418, 419, 420, 421, 422, 423, 424, 425, 426, 427, 428, 429, 430, 431, 432, 433, 434, 435, 436, 437, 438, 439, 440, 441, 442, 443, 444, 445, 446, 447, 448, 449, 450, 451, 452, 453, 454, 455, 456, 457, 458, 459, 460, 461, 462, 463, 464, 465, 466, 467, 468, 469, 470, 471, 472, 473, 474, 475, 476, 477, 478, 479, 480, 481, 482, 483, 484, 485, 486, 487, 488, 489, 490, 491, 492, 493, 494, 495, 496, 497, 498, 499, 500, 501, 502, 503, 504, 505, 506, 507, 508, 509, 510], "AcquisitionTime": ["142715.000000", "142715.610000", "142716.220000", "142716.830000", "142717.440000", "142718.050000", "142718.660000", "142719.270000", "142719.880000", "142720.490000", "142721.100000", "142721.710000", "142722.320000", "142722.930000", "142723.540000", "142724.150000", "142724.760000", "142725.370000", "142725.980000", "142726.590000", "142727.200000", "142727.810000", "142728.420000", "142729.030000", "142729.640000", "142730.250000", "142730.860000", "142731.470000", "142732.080000", "142732.690000", "142733.300000", "142733.910000", "142734.520000", "142735.130000", "142735.740000", "142736.350000", "142736.960000", "142737.570000", "142738.180000", "142738.790000", "142739.400000", "142740.010000", "142740.620000", "142741.230000", "142741.840000", "142742.450000", "142743.060000", "142743.670000", "142744.280000", "142744.890000", "142745.500000", "142746.110000", "142746.720000", "142747.330000", "142747.940000", "142748.550000", "142749.160000", "142749.770000", "142750.380000", "142750.990000", "142751.600000", "142752.210000", "142752.820000", "142753.430000", "142754.040000", "142754.650000", "142755.260000", "142755.870000", "142756.480000", "142757.090000", "142757.700000", "142758.310000", "142758.920000", "142759.530000", "142800.140000", "142800.750000", "142801.360000", "142801.970000", "142802.580000", "142803.190000", "142803.800000", "142804.410000", "142805.020000", "142805.630000", "142806.240000", "142806.850000", "142807.460000", "142808.070000", "142808.680000", "142809.290000", "142809.900000", "142810.510000", "142811.120000", "142811.730000", "142812.340000", "142812.950000", "142813.560000", "142814.170000", "142814.780000", "142815.390000", "142816.000000", "142816.610000", "142817.220000", "142817.830000", "142818.440000", "142819.050000", "142819.660000", "142820.270000", "142820.880000", "142821.490000", "142822.100000", "142822.710000", "142823.320000", "142823.930000", "142824.540000", "142825.150000", "142825.760000", "142826.370000", "142826.980000", "142827.590000", "142828.200000", "142828.810000", "142829.420000", "142830.030000", "142830.640000", "142831.250000", "142831.860000", "142832.470000", "142833.080000", "142833.690000", "142834.300000", "142834.910000", "142835.520000", "142836.130000", "142836.740000", "142837.350000", "142837.960000", "142838.570000", "142839.180000", "142839.790000", "142840.400000", "142841.010000", "142841.620000", "142842.230000", "142842.840000", "142843.450000", "142844.060000", "142844.670000", "142845.280000", "142845.890000", "142846.500000", "142847.110000", "142847.720000", "142848.330000", "142848.940000", "142849.550000", "142850.160000", "142850.770000", "142851.380000", "142851.990000", "142852.600000", "142853.210000", "142853.820000", "142854.430000", "142855.040000", "142855.650000", "142856.260000", "142856.870000", "142857.480000", "142858.090000", "142858.700000", "142859.310000", "142859.920000", "142900.530000", "142901.140000", "142901.750000", "142902.360000", "142902.970000", "142903.580000", "142904.190000", "142904.800000", "142905.410000", "142906.020000", "142906.630000", "142907.240000", "142907.850000", "142908.460000", "142909.070000", "142909.680000", "142910.290000", "142910.900000", "142911.510000", "142912.120000", "142912.730000", "142913.340000", "142913.950000", "142914.560000", "142915.170000", "142915.780000", "142916.390000", "142917.000000", "142917.610000", "142918.220000", "142918.830000", "142919.440000", "142920.050000", "142920.660000", "142921.270000", "142921.880000", "142922.490000", "142923.100000", "142923.710000", "142924.320000", "142924.930000", "142925.540000", "142926.150000", "142926.760000", "142927.370000", "142927.980000", "142928.590000", "142929.200000", "142929.810000", "142930.420000", "142931.030000", "142931.640000", "142932.250000", "142932.860000", "142933.470000", "142934.080000", "142934.690000", "142935.300000", "142935.910000", "142936.520000", "142937.130000", "142937.740000", "142938.350000", "142938.960000", "142939.570000", "142940.180000", "142940.790000", "142941.400000", "142942.010000", "142942.620000", "142943.230000", "142943.840000", "142944.450000", "142945.060000", "142945.670000", "142946.280000", "142946.890000", "142947.500000", "142948.110000", "142948.720000", "142949.330000", "142949.940000", "142950.550000", "142951.160000", "142951.770000", "142952.380000", "142952.990000", "142953.600000", "142954.210000", "142954.820000", "142955.430000", "142956.040000", "142956.650000", "142957.260000", "142957.870000", "142958.480000", "142959.090000", "142959.700000", "143000.310000", "143000.920000", "143001.530000", "143002.140000", "143002.750000", "143003.360000", "143003.970000", "143004.580000", "143005.190000", "143005.800000", "143006.410000", "143007.020000", "143007.630000", "143008.240000", "143008.850000", "143009.460000", "143010.070000", "143010.680000", "143011.290000", "143011.900000", "143012.510000", "143013.120000", "143013.730000", "143014.340000", "143014.950000", "143015.560000", "143016.170000", "143016.780000", "143017.390000", "143018.000000", "143018.610000", "143019.220000", "143019.830000", "143020.440000", "143021.050000", "143021.660000", "143022.270000", "143022.880000", "143023.490000", "143024.100000", "143024.710000", "143025.320000", "143025.930000", "143026.540000", "143027.150000", "143027.760000", "143028.370000", "143028.980000", "143029.590000", "143030.200000", "143030.810000", "143031.420000", "143032.030000", "143032.640000", "143033.250000", "143033.860000", "143034.470000", "143035.080000", "143035.690000", "143036.300000", "143036.910000", "143037.520000", "143038.130000", "143038.740000", "143039.350000", "143039.960000", "143040.570000", "143041.180000", "143041.790000", "143042.400000", "143043.010000", "143043.620000", "143044.230000", "143044.840000", "143045.450000", "143046.060000", "143046.670000", "143047.280000", "143047.890000", "143048.500000", "143049.110000", "143049.720000", "143050.330000", "143050.940000", "143051.550000", "143052.160000", "143052.770000", "143053.380000", "143053.990000", "143054.600000", "143055.210000", "143055.820000", "143056.430000", "143057.040000", "143057.650000", "143058.260000", "143058.870000", "143059.480000", "143100.090000", "143100.700000", "143101.310000", "143101.920000", "143102.530000", "143103.140000", "143103.750000", "143104.360000", "143104.970000", "143105.580000", "143106.190000", "143106.800000", "143107.410000", "143108.020000", "143108.630000", "143109.240000", "143109.850000", "143110.460000", "143111.070000", "143111.680000", "143112.290000", "143112.900000", "143113.510000", "143114.120000", "143114.730000", "143115.340000", "143115.950000", "143116.560000", "143117.170000", "143117.780000", "143118.390000", "143119.000000", "143119.610000", "143120.220000", "143120.830000", "143121.440000", "143122.050000", "143122.660000", "143123.270000", "143123.880000", "143124.490000", "143125.100000", "143125.710000", "143126.320000", "143126.930000", "143127.540000", "143128.150000", "143128.760000", "143129.370000", "143129.980000", "143130.590000", "143131.200000", "143131.810000", "143132.420000", "143133.030000", "143133.640000", "143134.250000", "143134.860000", "143135.470000", "143136.080000", "143136.690000", "143137.300000", "143137.910000", "143138.520000", "143139.130000", "143139.740000", "143140.350000", "143140.960000", "143141.570000", "143142.180000", "143142.790000", "143143.400000", "143144.010000", "143144.620000", "143145.230000", "143145.840000", "143146.450000", "143147.060000", "143147.670000", "143148.280000", "143148.890000", "143149.500000", "143150.110000", "143150.720000", "143151.330000", "143151.940000", "143152.550000", "143153.160000", "143153.770000", "143154.380000", "143154.990000", "143155.600000", "143156.210000", "143156.820000", "143157.430000", "143158.040000", "143158.650000", "143159.260000", "143159.870000", "143200.480000", "143201.090000", "143201.700000", "143202.310000", "143202.920000", "143203.530000", "143204.140000", "143204.750000", "143205.360000", "143205.970000", "143206.580000", "143207.190000", "143207.800000", "143208.410000", "143209.020000", "143209.630000", "143210.240000", "143210.850000", "143211.460000", "143212.070000", "143212.680000", "143213.290000", "143213.900000", "143214.510000", "143215.120000", "143215.730000", "143216.340000", "143216.950000", "143217.560000", "143218.170000", "143218.780000", "143219.390000", "143220.000000", "143220.610000", "143221.220000", "143221.830000", "143222.440000", "143223.050000", "143223.660000", "143224.270000", "143224.880000", "143225.490000"], "ContentTime": ["142746.263000", "142746.266000", "142746.269000", "142746.271000", "142746.273000", "142746.276000", "142746.278000", "142746.287000", "142746.289000", "142746.292000", "142746.294000", "142746.297000", "142746.299000", "142746.301000", "142746.304000", "142746.306000", "142746.309000", "142746.311000", "142746.313000", "142746.316000", "142746.318000", "142746.320000", "142746.323000", "142746.325000", "142746.328000", "142746.337000", "142746.339000", "142746.342000", "142746.344000", "142746.346000", "142746.349000", "142746.351000", "142746.354000", "142746.356000", "142746.358000", "142746.361000", "142746.363000", "142746.365000", "142746.368000", "142746.370000", "142746.372000", "142746.375000", "142746.377000", "142746.380000", "142746.382000", "142746.384000", "142746.387000", "142746.389000", "142746.391000", "142746.394000", "142746.396000", "142806.259000", "142806.262000", "142806.264000", "142806.266000", "142806.269000", "142806.271000", "142806.274000", "142806.276000", "142806.278000", "142806.281000", "142806.283000", "142806.285000", "142806.288000", "142806.290000", "142806.293000", "142806.295000", "142806.297000", "142806.300000", "142806.302000", "142806.304000", "142806.307000", "142806.309000", "142806.312000", "142806.314000", "142806.316000", "142806.319000", "142806.321000", "142806.323000", "142806.326000", "142806.328000", "142806.331000", "142806.333000", "142806.343000", "142826.258000", "142826.261000", "142826.263000", "142826.265000", "142826.268000", "142826.270000", "142826.273000", "142826.275000", "142826.277000", "142826.280000", "142826.282000", "142826.285000", "142826.287000", "142826.289000", "142826.292000", "142826.294000", "142826.296000", "142826.299000", "142826.301000", "142826.303000", "142826.306000", "142826.308000", "142826.311000", "142826.313000", "142826.316000", "142826.318000", "142826.321000", "142826.323000", "142826.325000", "142826.328000", "142826.330000", "142826.333000", "142846.258000", "142846.261000", "142846.263000", "142846.266000", "142846.268000", "142846.271000", "142846.273000", "142846.276000", "142846.278000", "142846.281000", "142846.283000", "142846.286000", "142846.288000", "142846.290000", "142846.293000", "142846.295000", "142846.298000", "142846.300000", "142846.303000", "142846.305000", "142846.307000", "142846.310000", "142846.312000", "142846.315000", "142846.317000", "142846.320000", "142846.322000", "142846.324000", "142846.327000", "142846.329000", "142846.332000", "142846.334000", "142846.337000", "142906.258000", "142906.261000", "142906.277000", "142906.280000", "142906.282000", "142906.284000", "142906.287000", "142906.289000", "142906.292000", "142906.294000", "142906.296000", "142906.299000", "142906.301000", "142906.303000", "142906.306000", "142906.308000", "142906.310000", "142906.313000", "142906.315000", "142906.318000", "142906.320000", "142906.322000", "142906.325000", "142906.327000", "142906.330000", "142906.332000", "142906.335000", "142906.337000", "142906.340000", "142906.350000", "142906.352000", "142906.355000", "142906.357000", "142926.258000", "142926.261000", "142926.263000", "142926.266000", "142926.268000", "142926.270000", "142926.273000", "142926.275000", "142926.277000", "142926.280000", "142926.282000", "142926.285000", "142926.287000", "142926.289000", "142926.292000", "142926.294000", "142926.296000", "142926.299000", "142926.301000", "142926.303000", "142926.306000", "142926.308000", "142926.311000", "142926.313000", "142926.315000", "142926.318000", "142926.320000", "142926.322000", "142926.325000", "142926.327000", "142926.330000", "142926.332000", "142926.335000", "142946.258000", "142946.261000", "142946.263000", "142946.266000", "142946.268000", "142946.279000", "142946.281000", "142946.284000", "142946.286000", "142946.289000", "142946.291000", "142946.293000", "142946.296000", "142946.298000", "142946.301000", "142946.303000", "142946.306000", "142946.308000", "142946.311000", "142946.313000", "142946.315000", "142946.318000", "142946.320000", "142946.323000", "142946.325000", "142946.327000", "142946.330000", "142946.332000", "142946.334000", "142946.337000", "142946.339000", "142946.342000", "143006.260000", "143006.262000", "143006.265000", "143006.267000", "143006.269000", "143006.272000", "143006.274000", "143006.276000", "143006.279000", "143006.281000", "143006.283000", "143006.286000", "143006.288000", "143006.291000", "143006.293000", "143006.295000", "143006.298000", "143006.300000", "143006.303000", "143006.305000", "143006.307000", "143006.310000", "143006.312000", "143006.321000", "143006.324000", "143006.326000", "143006.329000", "143006.331000", "143006.333000", "143006.336000", "143006.338000", "143006.340000", "143006.343000", "143026.259000", "143026.262000", "143026.264000", "143026.266000", "143026.269000", "143026.271000", "143026.273000", "143026.276000", "143026.278000", "143026.281000", "143026.283000", "143026.285000", "143026.288000", "143026.290000", "143026.292000", "143026.295000", "143026.297000", "143026.300000", "143026.302000", "143026.304000", "143026.307000", "143026.309000", "143026.311000", "143026.314000", "143026.316000", "143026.318000", "143026.321000", "143026.323000", "143026.326000", "143026.328000", "143026.330000", "143026.333000", "143026.335000", "143046.258000", "143046.261000", "143046.263000", "143046.265000", "143046.268000", "143046.271000", "143046.273000", "143046.275000", "143046.278000", "143046.280000", "143046.282000", "143046.285000", "143046.287000", "143046.290000", "143046.292000", "143046.294000", "143046.297000", "143046.299000", "143046.302000", "143046.304000", "143046.306000", "143046.309000", "143046.311000", "143046.313000", "143046.316000", "143046.318000", "143046.321000", "143046.323000", "143046.325000", "143046.328000", "143046.330000", "143046.332000", "143046.335000", "143106.258000", "143106.261000", "143106.263000", "143106.266000", "143106.268000", "143106.270000", "143106.273000", "143106.275000", "143106.277000", "143106.280000", "143106.282000", "143106.285000", "143106.287000", "143106.289000", "143106.292000", "143106.294000", "143106.296000", "143106.299000", "143106.301000", "143106.303000", "143106.306000", "143106.308000", "143106.311000", "143106.313000", "143106.315000", "143106.318000", "143106.320000", "143106.322000", "143106.325000", "143106.327000", "143106.329000", "143106.332000", "143106.334000", "143126.258000", "143126.261000", "143126.263000", "143126.266000", "143126.268000", "143126.271000", "143126.273000", "143126.275000", "143126.278000", "143126.280000", "143126.282000", "143126.285000", "143126.287000", "143126.290000", "143126.292000", "143126.294000", "143126.297000", "143126.299000", "143126.301000", "143126.304000", "143126.306000", "143126.309000", "143126.312000", "143126.314000", "143126.317000", "143126.319000", "143126.321000", "143126.324000", "143126.326000", "143126.328000", "143126.331000", "143126.333000", "143146.258000", "143146.261000", "143146.263000", "143146.265000", "143146.268000", "143146.324000", "143146.327000", "143146.329000", "143146.332000", "143146.334000", "143146.337000", "143146.339000", "143146.341000", "143146.344000", "143146.346000", "143146.349000", "143146.352000", "143146.354000", "143146.357000", "143146.359000", "143146.362000", "143146.364000", "143146.366000", "143146.369000", "143146.371000", "143146.374000", "143146.376000", "143146.378000", "143146.381000", "143146.383000", "143146.386000", "143146.388000", "143146.390000", "143206.258000", "143206.261000", "143206.263000", "143206.266000", "143206.268000", "143206.271000", "143206.273000", "143206.275000", "143206.278000", "143206.280000", "143206.282000", "143206.285000", "143206.287000", "143206.290000", "143206.292000", "143206.294000", "143206.297000", "143206.299000", "143206.301000", "143206.304000", "143206.313000", "143206.316000", "143206.318000", "143206.321000", "143206.324000", "143206.326000", "143206.328000", "143206.331000", "143206.333000", "143206.336000", "143206.338000", "143206.341000", "143206.343000", "143226.077000", "143226.079000", "143226.082000", "143226.084000", "143226.086000", "143226.089000", "143226.091000", "143226.094000", "143226.096000", "143226.098000", "143226.101000", "143226.103000", "143226.105000", "143226.108000", "143226.111000", "143226.114000", "143226.117000", "143226.119000", "143226.122000", "143226.124000", "143226.126000", "143226.129000", "143226.131000", "143226.133000", "143226.136000", "143226.138000", "143226.140000", "143226.143000", "143226.145000", "143226.148000", "143226.150000", "143226.152000", "143226.155000"], "InstanceCreationTime": ["142746.263000", "142746.266000", "142746.269000", "142746.271000", "142746.273000", "142746.276000", "142746.278000", "142746.287000", "142746.289000", "142746.292000", "142746.294000", "142746.297000", "142746.299000", "142746.301000", "142746.304000", "142746.306000", "142746.309000", "142746.311000", "142746.313000", "142746.316000", "142746.318000", "142746.320000", "142746.323000", "142746.325000", "142746.328000", "142746.337000", "142746.339000", "142746.342000", "142746.344000", "142746.346000", "142746.349000", "142746.351000", "142746.354000", "142746.356000", "142746.358000", "142746.361000", "142746.363000", "142746.365000", "142746.368000", "142746.370000", "142746.372000", "142746.375000", "142746.377000", "142746.380000", "142746.382000", "142746.384000", "142746.387000", "142746.389000", "142746.391000", "142746.394000", "142746.396000", "142806.259000", "142806.262000", "142806.264000", "142806.266000", "142806.269000", "142806.271000", "142806.274000", "142806.276000", "142806.278000", "142806.281000", "142806.283000", "142806.285000", "142806.288000", "142806.290000", "142806.293000", "142806.295000", "142806.297000", "142806.300000", "142806.302000", "142806.304000", "142806.307000", "142806.309000", "142806.312000", "142806.314000", "142806.316000", "142806.319000", "142806.321000", "142806.323000", "142806.326000", "142806.328000", "142806.331000", "142806.333000", "142806.343000", "142826.258000", "142826.261000", "142826.263000", "142826.265000", "142826.268000", "142826.270000", "142826.273000", "142826.275000", "142826.277000", "142826.280000", "142826.282000", "142826.285000", "142826.287000", "142826.289000", "142826.292000", "142826.294000", "142826.296000", "142826.299000", "142826.301000", "142826.303000", "142826.306000", "142826.308000", "142826.311000", "142826.313000", "142826.316000", "142826.318000", "142826.321000", "142826.323000", "142826.325000", "142826.328000", "142826.330000", "142826.333000", "142846.258000", "142846.261000", "142846.263000", "142846.266000", "142846.268000", "142846.271000", "142846.273000", "142846.276000", "142846.278000", "142846.281000", "142846.283000", "142846.286000", "142846.288000", "142846.290000", "142846.293000", "142846.295000", "142846.298000", "142846.300000", "142846.303000", "142846.305000", "142846.307000", "142846.310000", "142846.312000", "142846.315000", "142846.317000", "142846.320000", "142846.322000", "142846.324000", "142846.327000", "142846.329000", "142846.332000", "142846.334000", "142846.337000", "142906.258000", "142906.261000", "142906.277000", "142906.280000", "142906.282000", "142906.284000", "142906.287000", "142906.289000", "142906.292000", "142906.294000", "142906.296000", "142906.299000", "142906.301000", "142906.303000", "142906.306000", "142906.308000", "142906.310000", "142906.313000", "142906.315000", "142906.318000", "142906.320000", "142906.322000", "142906.325000", "142906.327000", "142906.330000", "142906.332000", "142906.335000", "142906.337000", "142906.340000", "142906.350000", "142906.352000", "142906.355000", "142906.357000", "142926.258000", "142926.261000", "142926.263000", "142926.266000", "142926.268000", "142926.270000", "142926.273000", "142926.275000", "142926.277000", "142926.280000", "142926.282000", "142926.285000", "142926.287000", "142926.289000", "142926.292000", "142926.294000", "142926.296000", "142926.299000", "142926.301000", "142926.303000", "142926.306000", "142926.308000", "142926.311000", "142926.313000", "142926.315000", "142926.318000", "142926.320000", "142926.322000", "142926.325000", "142926.327000", "142926.330000", "142926.332000", "142926.335000", "142946.258000", "142946.261000", "142946.263000", "142946.266000", "142946.268000", "142946.279000", "142946.281000", "142946.284000", "142946.286000", "142946.289000", "142946.291000", "142946.293000", "142946.296000", "142946.298000", "142946.301000", "142946.303000", "142946.306000", "142946.308000", "142946.311000", "142946.313000", "142946.315000", "142946.318000", "142946.320000", "142946.323000", "142946.325000", "142946.327000", "142946.330000", "142946.332000", "142946.334000", "142946.337000", "142946.339000", "142946.342000", "143006.260000", "143006.262000", "143006.265000", "143006.267000", "143006.269000", "143006.272000", "143006.274000", "143006.276000", "143006.279000", "143006.281000", "143006.283000", "143006.286000", "143006.288000", "143006.291000", "143006.293000", "143006.295000", "143006.298000", "143006.300000", "143006.303000", "143006.305000", "143006.307000", "143006.310000", "143006.312000", "143006.321000", "143006.324000", "143006.326000", "143006.329000", "143006.331000", "143006.333000", "143006.336000", "143006.338000", "143006.340000", "143006.343000", "143026.259000", "143026.262000", "143026.264000", "143026.266000", "143026.269000", "143026.271000", "143026.273000", "143026.276000", "143026.278000", "143026.281000", "143026.283000", "143026.285000", "143026.288000", "143026.290000", "143026.292000", "143026.295000", "143026.297000", "143026.300000", "143026.302000", "143026.304000", "143026.307000", "143026.309000", "143026.311000", "143026.314000", "143026.316000", "143026.318000", "143026.321000", "143026.323000", "143026.326000", "143026.328000", "143026.330000", "143026.333000", "143026.335000", "143046.258000", "143046.261000", "143046.263000", "143046.265000", "143046.268000", "143046.271000", "143046.273000", "143046.275000", "143046.278000", "143046.280000", "143046.282000", "143046.285000", "143046.287000", "143046.290000", "143046.292000", "143046.294000", "143046.297000", 