{"AcquisitionMatrixPE": 64, "AcquisitionNumber": 1, "AcquisitionTime": "12:05:31.730000", "BandwidthPerPixelPhaseEncode": 28.935, "BaseResolution": 64, "BodyPartExamined": "BRAIN", "CoilCombinationMethod": "Sum of Squares", "ConsistencyInfo": "N4_VE11E_LATEST_20181129", "ConversionSoftware": "dcm2niix", "ConversionSoftwareVersion": "v1.0.20230411", "DerivedVendorReportedEchoSpacing": 0.000540003, "DeviceSerialNumber": "166182", "DwellTime": 3.4e-06, "EchoTime": 0.032, "EchoTrainLength": 64, "EffectiveEchoSpacing": 0.000540003, "FlipAngle": 40, "HeudiconvVersion": "0.13.1", "ImageOrientationPatientDICOM": [0.992392, -0.11393, -0.0466694, 0.113069, 0.993371, -0.0207071], "ImageOrientationText": "Tra>Sag(-2.8)>Cor(-0.9)", "ImageType": ["ORIGINAL", "PRIMARY", "M", "ND", "NORM", "MOSAIC"], "ImagingFrequency": 123.255726, "InPlanePhaseEncodingDirectionDICOM": "COL", "InstitutionAddress": "PEARSE STREET .,City,District,IE,D2", "InstitutionName": "TCIN", "InstitutionalDepartmentName": "MRI", "MRAcquisitionType": "2D", "MagneticFieldStrength": 3, "Manufacturer": "Siemens", "ManufacturersModelName": "Prisma", "Modality": "MR", "MultibandAccelerationFactor": 4, "NonlinearGradientCorrection": false, "PartialFourier": 1, "PatientPosition": "HFS", "PercentPhaseFOV": 100, "PercentSampling": 100, "PhaseEncodingDirection": "j-", "PhaseEncodingSteps": 64, "PhaseResolution": 1, "PixelBandwidth": 2300, "ProcedureStepDescription": "Rhodri^Head BOLD", "ProtocolName": "cmrr_mbep2d_Pictures_AP_RDS", "PulseSequenceDetails": "%SiemensSeq%\\ep2d_bold", "ReceiveCoilActiveElements": "HC2,4,6,7", "ReceiveCoilName": "HeadNeck_64", "ReconMatrixPE": 64, "RefLinesPE": 12, "RepetitionTime": 0.61, "SAR": 0.265086, "ScanOptions": "FS", "ScanningSequence": "EP", "SequenceName": "*epfid2d1_64", "SequenceVariant": "SK", "SeriesDescription": "cmrr_mbep2d_Pictures_AP_RDS", "SeriesNumber": 9, "ShimSetting": [-3587, -7444, 3883, 706, 27, 233, 193, 95], "SliceThickness": 3, "SliceTiming": [0.2625, 0, 0.3275, 0.065, 0.3925, 0.13, 0.4575, 0.195, 0.525, 0.2625, 0, 0.3275, 0.065, 0.3925, 0.13, 0.4575, 0.195, 0.525, 0.2625, 0, 0.3275, 0.065, 0.3925, 0.13, 0.4575, 0.195, 0.525, 0.2625, 0, 0.3275, 0.065, 0.3925, 0.13, 0.4575, 0.195, 0.525], "SoftwareVersions": "syngo MR E11", "SpacingBetweenSlices": 3.3, "StationName": "AWP166182", "TaskName": "pictures", "TotalReadoutTime": 0.0340202, "TxRefAmp": 249.772, "dcmmeta_affine": [[-2.9771759510040283, 0.3392064571380615, -0.1607733964920044, 86.50495910644531], [0.3417905271053314, 2.980113983154297, -0.0503997728228569, -107.2026138305664], [-0.14000822603702545, 0.062121156603097916, 3.2956960201263428, -75.22296142578125], [0.0, 0.0, 0.0, 1.0]], "dcmmeta_reorient_transform": [[0.0, -1.0, 0.0, 63.0], [1.0, 0.0, 0.0, 0.0], [0.0, 0.0, 1.0, 0.0], [0.0, 0.0, 0.0, 1.0]], "dcmmeta_shape": [64, 64, 36, 510], "dcmmeta_slice_dim": 2, "dcmmeta_version": 0.6, "global": {"const": {"AcquisitionMatrix": [64, 0, 0, 64], "AngioFlag": "N", "BitsAllocated": 16, "BitsStored": 12, "BodyPartExamined": "BRAIN", "Columns": 384, "EchoNumbers": 1, "EchoTime": 32.0, "EchoTrainLength": 64, "FlipAngle": 40.0, "HighBit": 11, "ImageOrientationPatient": [0.99239199979958, -0.1139301768754, -0.0466694067987, 0.1130688166002, 0.99337136092744, -0.0207070519825], "ImagePositionPatient": [-638.49615360824, -502.67633972066, -38.968625562379], "ImageType": ["ORIGINAL", "PRIMARY", "M", "ND", "NORM", "MOSAIC"], "ImagedNucleus": "1H", "ImagingFrequency": 123.255726, "InPlanePhaseEncodingDirection": "COL", "MRAcquisitionType": "2D", "MagneticFieldStrength": 3.0, "Manufacturer": "SIEMENS", "ManufacturerModelName": "Prisma", "Modality": "MR", "NumberOfAverages": 1.0, "NumberOfPhaseEncodingSteps": 64, "PercentPhaseFieldOfView": 100.0, "PercentSampling": 100.0, "PerformedProcedureStepStartTime": "115122.203000", "PhotometricInterpretation": "MONOCHROME2", "PixelBandwidth": 2300.0, "PixelRepresentation": 0, "PixelSpacing": [3.0, 3.0], "ProtocolName": "cmrr_mbep2d_Pictures_AP_RDS", "RepetitionTime": 610.0, "Rows": 384, "SAR": 0.26508589713554, "SamplesPerPixel": 1, "ScanOptions": "FS", "ScanningSequence": "EP", "SequenceName": "*epfid2d1_64", "SequenceVariant": "SK", "SeriesDescription": "cmrr_mbep2d_Pictures_AP_RDS", "SeriesNumber": 9, "SeriesTime": "120551.190000", "SliceLocation": -77.702032639737, "SliceThickness": 3.0, "SmallestImagePixelValue": 0, "SoftwareVersions": "syngo MR E11", "SpacingBetweenSlices": 3.2999999840094, "SpecificCharacterSet": "ISO_IR 100", "StudyID": "1", "StudyTime": "115122.130000", "TransmitCoilName": "Body", "VariableFlipAngleFlag": "N", "WindowCenterWidthExplanation": "Algo1"}, "slices": {}}, "time": {"samples": {"AcquisitionNumber": [1, 2, 3, 4, 5, 6, 7, 8, 9, 10, 11, 12, 13, 14, 15, 16, 17, 18, 19, 20, 21, 22, 23, 24, 25, 26, 27, 28, 29, 30, 31, 32, 33, 34, 35, 36, 37, 38, 39, 40, 41, 42, 43, 44, 45, 46, 47, 48, 49, 50, 51, 52, 53, 54, 55, 56, 57, 58, 59, 60, 61, 62, 63, 64, 65, 66, 67, 68, 69, 70, 71, 72, 73, 74, 75, 76, 77, 78, 79, 80, 81, 82, 83, 84, 85, 86, 87, 88, 89, 90, 91, 92, 93, 94, 95, 96, 97, 98, 99, 100, 101, 102, 103, 104, 105, 106, 107, 108, 109, 110, 111, 112, 113, 114, 115, 116, 117, 118, 119, 120, 121, 122, 123, 124, 125, 126, 127, 128, 129, 130, 131, 132, 133, 134, 135, 136, 137, 138, 139, 140, 141, 142, 143, 144, 145, 146, 147, 148, 149, 150, 151, 152, 153, 154, 155, 156, 157, 158, 159, 160, 161, 162, 163, 164, 165, 166, 167, 168, 169, 170, 171, 172, 173, 174, 175, 176, 177, 178, 179, 180, 181, 182, 183, 184, 185, 186, 187, 188, 189, 190, 191, 192, 193, 194, 195, 196, 197, 198, 199, 200, 201, 202, 203, 204, 205, 206, 207, 208, 209, 210, 211, 212, 213, 214, 215, 216, 217, 218, 219, 220, 221, 222, 223, 224, 225, 226, 227, 228, 229, 230, 231, 232, 233, 234, 235, 236, 237, 238, 239, 240, 241, 242, 243, 244, 245, 246, 247, 248, 249, 250, 251, 252, 253, 254, 255, 256, 257, 258, 259, 260, 261, 262, 263, 264, 265, 266, 267, 268, 269, 270, 271, 272, 273, 274, 275, 276, 277, 278, 279, 280, 281, 282, 283, 284, 285, 286, 287, 288, 289, 290, 291, 292, 293, 294, 295, 296, 297, 298, 299, 300, 301, 302, 303, 304, 305, 306, 307, 308, 309, 310, 311, 312, 313, 314, 315, 316, 317, 318, 319, 320, 321, 322, 323, 324, 325, 326, 327, 328, 329, 330, 331, 332, 333, 334, 335, 336, 337, 338, 339, 340, 341, 342, 343, 344, 345, 346, 347, 348, 349, 350, 351, 352, 353, 354, 355, 356, 357, 358, 359, 360, 361, 362, 363, 364, 365, 366, 367, 368, 369, 370, 371, 372, 373, 374, 375, 376, 377, 378, 379, 380, 381, 382, 383, 384, 385, 386, 387, 388, 389, 390, 391, 392, 393, 394, 395, 396, 397, 398, 399, 400, 401, 402, 403, 404, 405, 406, 407, 408, 409, 410, 411, 412, 413, 414, 415, 416, 417, 418, 419, 420, 421, 422, 423, 424, 425, 426, 427, 428, 429, 430, 431, 432, 433, 434, 435, 436, 437, 438, 439, 440, 441, 442, 443, 444, 445, 446, 447, 448, 449, 450, 451, 452, 453, 454, 455, 456, 457, 458, 459, 460, 461, 462, 463, 464, 465, 466, 467, 468, 469, 470, 471, 472, 473, 474, 475, 476, 477, 478, 479, 480, 481, 482, 483, 484, 485, 486, 487, 488, 489, 490, 491, 492, 493, 494, 495, 496, 497, 498, 499, 500, 501, 502, 503, 504, 505, 506, 507, 508, 509, 510], "AcquisitionTime": ["120531.730000", "120532.340000", "120532.950000", "120533.560000", "120534.170000", "120534.780000", "120535.390000", "120536.000000", "120536.610000", "120537.220000", "120537.830000", "120538.440000", "120539.050000", "120539.660000", "120540.270000", "120540.880000", "120541.490000", "120542.100000", "120542.710000", "120543.320000", "120543.930000", "120544.540000", "120545.150000", "120545.760000", "120546.370000", "120546.980000", "120547.590000", "120548.200000", "120548.810000", "120549.420000", "120550.030000", "120550.640000", "120551.250000", "120551.860000", "120552.470000", "120553.080000", "120553.690000", "120554.300000", "120554.910000", "120555.520000", "120556.130000", "120556.740000", "120557.350000", "120557.960000", "120558.570000", "120559.180000", "120559.790000", "120600.400000", "120601.010000", "120601.620000", "120602.230000", "120602.840000", "120603.450000", "120604.060000", "120604.670000", "120605.280000", "120605.890000", "120606.500000", "120607.110000", "120607.720000", "120608.330000", "120608.940000", "120609.550000", "120610.160000", "120610.770000", "120611.380000", "120611.990000", "120612.600000", "120613.210000", "120613.820000", "120614.430000", "120615.040000", "120615.650000", "120616.260000", "120616.870000", "120617.480000", "120618.090000", "120618.700000", "120619.310000", "120619.920000", "120620.530000", "120621.140000", "120621.750000", "120622.360000", "120622.970000", "120623.580000", "120624.190000", "120624.800000", "120625.410000", "120626.020000", "120626.630000", "120627.240000", "120627.850000", "120628.460000", "120629.070000", "120629.680000", "120630.290000", "120630.900000", "120631.510000", "120632.120000", "120632.730000", "120633.340000", "120633.950000", "120634.560000", "120635.170000", "120635.780000", "120636.390000", "120637.000000", "120637.610000", "120638.220000", "120638.830000", "120639.440000", "120640.050000", "120640.660000", "120641.270000", "120641.880000", "120642.490000", "120643.100000", "120643.710000", "120644.320000", "120644.930000", "120645.540000", "120646.150000", "120646.760000", "120647.370000", "120647.980000", "120648.590000", "120649.200000", "120649.810000", "120650.420000", "120651.030000", "120651.640000", "120652.250000", "120652.860000", "120653.470000", "120654.080000", "120654.690000", "120655.300000", "120655.910000", "120656.520000", "120657.130000", "120657.740000", "120658.350000", "120658.960000", "120659.570000", "120700.180000", "120700.790000", "120701.400000", "120702.010000", "120702.620000", "120703.230000", "120703.840000", "120704.450000", "120705.060000", "120705.670000", "120706.280000", "120706.890000", "120707.500000", "120708.110000", "120708.720000", "120709.330000", "120709.940000", "120710.550000", "120711.160000", "120711.770000", "120712.380000", "120712.990000", "120713.600000", "120714.210000", "120714.820000", "120715.430000", "120716.040000", "120716.650000", "120717.260000", "120717.870000", "120718.480000", "120719.090000", "120719.700000", "120720.310000", "120720.920000", "120721.530000", "120722.140000", "120722.750000", "120723.360000", "120723.970000", "120724.580000", "120725.190000", "120725.800000", "120726.410000", "120727.020000", "120727.630000", "120728.240000", "120728.850000", "120729.460000", "120730.070000", "120730.680000", "120731.290000", "120731.900000", "120732.510000", "120733.120000", "120733.730000", "120734.340000", "120734.950000", "120735.560000", "120736.170000", "120736.780000", "120737.390000", "120738.000000", "120738.610000", "120739.220000", "120739.830000", "120740.440000", "120741.050000", "120741.660000", "120742.270000", "120742.880000", "120743.490000", "120744.100000", "120744.710000", "120745.320000", "120745.930000", "120746.540000", "120747.150000", "120747.760000", "120748.370000", "120748.980000", "120749.590000", "120750.200000", "120750.810000", "120751.420000", "120752.030000", "120752.640000", "120753.250000", "120753.860000", "120754.470000", "120755.080000", "120755.690000", "120756.300000", "120756.910000", "120757.520000", "120758.130000", "120758.740000", "120759.350000", "120759.960000", "120800.570000", "120801.180000", "120801.790000", "120802.400000", "120803.010000", "120803.620000", "120804.230000", "120804.840000", "120805.450000", "120806.060000", "120806.670000", "120807.280000", "120807.890000", "120808.500000", "120809.110000", "120809.720000", "120810.330000", "120810.940000", "120811.550000", "120812.160000", "120812.770000", "120813.380000", "120813.990000", "120814.600000", "120815.210000", "120815.820000", "120816.430000", "120817.040000", "120817.650000", "120818.260000", "120818.870000", "120819.480000", "120820.090000", "120820.700000", "120821.310000", "120821.920000", "120822.530000", "120823.140000", "120823.750000", "120824.360000", "120824.970000", "120825.580000", "120826.190000", "120826.800000", "120827.410000", "120828.020000", "120828.630000", "120829.240000", "120829.850000", "120830.460000", "120831.070000", "120831.680000", "120832.290000", "120832.900000", "120833.510000", "120834.120000", "120834.730000", "120835.340000", "120835.950000", "120836.560000", "120837.170000", "120837.780000", "120838.390000", "120839.000000", "120839.610000", "120840.220000", "120840.830000", "120841.440000", "120842.050000", "120842.660000", "120843.270000", "120843.880000", "120844.490000", "120845.100000", "120845.710000", "120846.320000", "120846.930000", "120847.540000", "120848.150000", "120848.760000", "120849.370000", "120849.980000", "120850.590000", "120851.200000", "120851.810000", "120852.420000", "120853.030000", "120853.640000", "120854.250000", "120854.860000", "120855.470000", "120856.080000", "120856.690000", "120857.300000", "120857.910000", "120858.520000", "120859.130000", "120859.740000", "120900.350000", "120900.960000", "120901.570000", "120902.180000", "120902.790000", "120903.400000", "120904.010000", "120904.620000", "120905.230000", "120905.840000", "120906.450000", "120907.060000", "120907.670000", "120908.280000", "120908.890000", "120909.500000", "120910.110000", "120910.720000", "120911.330000", "120911.940000", "120912.550000", "120913.160000", "120913.770000", "120914.380000", "120914.990000", "120915.600000", "120916.210000", "120916.820000", "120917.430000", "120918.040000", "120918.650000", "120919.260000", "120919.870000", "120920.480000", "120921.090000", "120921.700000", "120922.310000", "120922.920000", "120923.530000", "120924.140000", "120924.750000", "120925.360000", "120925.970000", "120926.580000", "120927.190000", "120927.800000", "120928.410000", "120929.020000", "120929.630000", "120930.240000", "120930.850000", "120931.460000", "120932.070000", "120932.680000", "120933.290000", "120933.900000", "120934.510000", "120935.120000", "120935.730000", "120936.340000", "120936.950000", "120937.560000", "120938.170000", "120938.780000", "120939.390000", "120940.000000", "120940.610000", "120941.220000", "120941.830000", "120942.440000", "120943.050000", "120943.660000", "120944.270000", "120944.880000", "120945.490000", "120946.100000", "120946.710000", "120947.320000", "120947.930000", "120948.540000", "120949.150000", "120949.760000", "120950.370000", "120950.980000", "120951.590000", "120952.200000", "120952.810000", "120953.420000", "120954.030000", "120954.640000", "120955.250000", "120955.860000", "120956.470000", "120957.080000", "120957.690000", "120958.300000", "120958.910000", "120959.520000", "121000.130000", "121000.740000", "121001.350000", "121001.960000", "121002.570000", "121003.180000", "121003.790000", "121004.400000", "121005.010000", "121005.620000", "121006.230000", "121006.840000", "121007.450000", "121008.060000", "121008.670000", "121009.280000", "121009.890000", "121010.500000", "121011.110000", "121011.720000", "121012.330000", "121012.940000", "121013.550000", "121014.160000", "121014.770000", "121015.380000", "121015.990000", "121016.600000", "121017.210000", "121017.820000", "121018.430000", "121019.040000", "121019.650000", "121020.260000", "121020.870000", "121021.480000", "121022.090000", "121022.700000", "121023.310000", "121023.920000", "121024.530000", "121025.140000", "121025.750000", "121026.360000", "121026.970000", "121027.580000", "121028.190000", "121028.800000", "121029.410000", "121030.020000", "121030.630000", "121031.240000", "121031.850000", "121032.460000", "121033.070000", "121033.680000", "121034.290000", "121034.900000", "121035.510000", "121036.120000", "121036.730000", "121037.340000", "121037.950000", "121038.560000", "121039.170000", "121039.780000", "121040.390000", "121041.000000", "121041.610000", "121042.220000"], "ContentTime": ["120551.194000", "120551.197000", "120551.200000", "120551.206000", "120551.208000", "120551.211000", "120551.213000", "120551.217000", "120551.219000", "120551.222000", "120551.224000", "120551.227000", "120551.229000", "120551.231000", "120551.234000", "120551.236000", "120551.239000", "120551.247000", "120551.250000", "120551.252000", "120551.254000", "120551.257000", "120551.259000", "120551.261000", "120551.264000", "120551.266000", "120551.269000", "120551.271000", "120551.273000", "120551.276000", "120551.278000", "120611.184000", "120611.187000", "120611.189000", "120611.192000", "120611.194000", "120611.196000", "120611.199000", "120611.201000", "120611.204000", "120611.206000", "120611.208000", "120611.211000", "120611.219000", "120611.222000", "120611.224000", "120611.227000", "120611.229000", "120611.231000", "120611.234000", "120611.236000", "120611.253000", "120611.255000", "120611.257000", "120611.259000", "120611.262000", "120611.264000", "120611.267000", "120611.269000", "120611.272000", "120611.274000", "120611.276000", "120611.279000", "120611.281000", "120631.184000", "120631.187000", "120631.190000", "120631.192000", "120631.194000", "120631.197000", "120631.199000", "120631.201000", "120631.204000", "120631.206000", "120631.209000", "120631.211000", "120631.213000", "120631.216000", "120631.218000", "120631.221000", "120631.223000", "120631.225000", "120631.228000", "120631.230000", "120631.233000", "120631.236000", "120631.238000", "120631.240000", "120631.243000", "120631.245000", "120631.247000", "120631.250000", "120631.252000", "120631.255000", "120631.257000", "120631.264000", "120631.267000", "120651.184000", "120651.187000", "120651.190000", "120651.192000", "120651.194000", "120651.197000", "120651.199000", "120651.201000", "120651.204000", "120651.206000", "120651.208000", "120651.211000", "120651.213000", "120651.215000", "120651.218000", "120651.220000", "120651.223000", "120651.225000", "120651.228000", "120651.230000", "120651.232000", "120651.235000", "120651.237000", "120651.239000", "120651.242000", "120651.244000", "120651.251000", "120651.253000", "120651.255000", "120651.258000", "120651.260000", "120651.262000", "120651.265000", "120711.184000", "120711.187000", "120711.190000", "120711.192000", "120711.194000", "120711.197000", "120711.199000", "120711.201000", "120711.204000", "120711.206000", "120711.208000", "120711.211000", "120711.213000", "120711.216000", "120711.218000", "120711.220000", "120711.223000", "120711.225000", "120711.227000", "120711.230000", "120711.232000", "120711.235000", "120711.237000", "120711.239000", "120711.242000", "120711.244000", "120711.246000", "120711.249000", "120711.251000", "120711.254000", "120711.256000", "120711.258000", "120731.185000", "120731.188000", "120731.191000", "120731.193000", "120731.195000", "120731.198000", "120731.200000", "120731.202000", "120731.205000", "120731.207000", "120731.209000", "120731.212000", "120731.214000", "120731.217000", "120731.219000", "120731.222000", "120731.224000", "120731.226000", "120731.229000", "120731.231000", "120731.233000", "120731.236000", "120731.238000", "120731.241000", "120731.243000", "120731.246000", "120731.248000", "120731.251000", "120731.253000", "120731.256000", "120731.258000", "120731.261000", "120731.263000", "120751.185000", "120751.188000", "120751.191000", "120751.193000", "120751.196000", "120751.198000", "120751.201000", "120751.203000", "120751.206000", "120751.208000", "120751.210000", "120751.213000", "120751.215000", "120751.217000", "120751.220000", "120751.222000", "120751.225000", "120751.231000", "120751.234000", "120751.236000", "120751.239000", "120751.241000", "120751.244000", "120751.246000", "120751.248000", "120751.251000", "120751.253000", "120751.256000", "120751.258000", "120751.260000", "120751.263000", "120751.265000", "120751.268000", "120811.185000", "120811.188000", "120811.191000", "120811.212000", "120811.215000", "120811.217000", "120811.220000", "120811.222000", "120811.224000", "120811.227000", "120811.230000", "120811.237000", "120811.239000", "120811.241000", "120811.244000", "120811.246000", "120811.249000", "120811.251000", "120811.253000", "120811.256000", "120811.258000", "120811.260000", "120811.263000", "120811.265000", "120811.268000", "120811.270000", "120811.272000", "120811.275000", "120811.277000", "120811.280000", "120811.282000", "120811.285000", "120811.287000", "120831.184000", "120831.187000", "120831.189000", "120831.192000", "120831.194000", "120831.197000", "120831.199000", "120831.202000", "120831.204000", "120831.207000", "120831.209000", "120831.211000", "120831.214000", "120831.216000", "120831.227000", "120831.229000", "120831.231000", "120831.234000", "120831.236000", "120831.239000", "120831.241000", "120831.244000", "120831.246000", "120831.249000", "120831.251000", "120831.253000", "120831.256000", "120831.258000", "120831.261000", "120831.263000", "120831.265000", "120831.268000", "120831.270000", "120851.184000", "120851.187000", "120851.189000", "120851.192000", "120851.194000", "120851.196000", "120851.199000", "120851.201000", "120851.204000", "120851.206000", "120851.209000", "120851.211000", "120851.214000", "120851.216000", "120851.219000", "120851.221000", "120851.224000", "120851.226000", "120851.228000", "120851.231000", "120851.233000", "120851.236000", "120851.238000", "120851.240000", "120851.243000", "120851.245000", "120851.247000", "120851.250000", "120851.252000", "120851.255000", "120851.257000", "120851.259000", "120911.184000", "120911.187000", "120911.190000", "120911.192000", "120911.194000", "120911.197000", "120911.199000", "120911.202000", "120911.205000", "120911.207000", "120911.210000", "120911.212000", "120911.215000", "120911.217000", "120911.220000", "120911.222000", "120911.225000", "120911.227000", "120911.229000", "120911.232000", "120911.234000", "120911.237000", "120911.239000", "120911.242000", "120911.244000", "120911.247000", "120911.249000", "120911.251000", "120911.254000", "120911.256000", "120911.258000", "120911.261000", "120911.263000", "120931.184000", "120931.187000", "120931.190000", "120931.192000", "120931.194000", "120931.197000", "120931.199000", "120931.202000", "120931.204000", "120931.207000", "120931.209000", "120931.211000", "120931.214000", "120931.216000", "120931.219000", "120931.221000", "120931.223000", "120931.226000", "120931.228000", "120931.231000", "120931.233000", "120931.235000", "120931.238000", "120931.240000", "120931.243000", "120931.245000", "120931.248000", "120931.250000", "120931.252000", "120931.260000", "120931.262000", "120931.265000", "120931.267000", "120951.185000", "120951.189000", "120951.191000", "120951.194000", "120951.197000", "120951.199000", "120951.201000", "120951.204000", "120951.206000", "120951.209000", "120951.211000", "120951.214000", "120951.216000", "120951.219000", "120951.221000", "120951.224000", "120951.227000", "120951.229000", "120951.231000", "120951.234000", "120951.236000", "120951.239000", "120951.241000", "120951.243000", "120951.246000", "120951.248000", "120951.250000", "120951.253000", "120951.255000", "120951.260000", "120951.263000", "120951.266000", "120951.268000", "121011.185000", "121011.188000", "121011.190000", "121011.193000", "121011.195000", "121011.198000", "121011.200000", "121011.202000", "121011.205000", "121011.207000", "121011.210000", "121011.212000", "121011.214000", "121011.217000", "121011.219000", "121011.222000", "121011.224000", "121011.227000", "121011.230000", "121011.232000", "121011.234000", "121011.237000", "121011.239000", "121011.242000", "121011.244000", "121011.246000", "121011.249000", "121011.251000", "121011.253000", "121011.256000", "121011.258000", "121011.260000", "121031.185000", "121031.188000", "121031.190000", "121031.193000", "121031.195000", "121031.198000", "121031.200000", "121031.203000", "121031.206000", "121031.208000", "121031.211000", "121031.213000", "121031.215000", "121031.218000", "121031.220000", "121031.223000", "121031.225000", "121031.234000", "121031.236000", "121031.239000", "121031.241000", "121031.243000", "121031.246000", "121031.248000", "121031.251000", "121031.253000", "121031.256000", "121031.258000", "121031.261000", "121031.263000", "121031.266000", "121031.268000", "121031.270000", "121042.915000", "121042.918000", "121042.920000", "121042.923000", "121042.926000", "121042.928000", "121042.930000", "121042.933000", "121042.935000", "121042.938000", "121042.940000", "121042.942000", "121042.945000", "121042.947000", "121042.950000", "121042.952000", "121042.963000", "121042.965000", "121042.968000", "121042.970000"], "InstanceCreationTime": ["120551.194000", "120551.197000", "120551.200000", "120551.206000", "120551.208000", "120551.211000", "120551.213000", "120551.217000", "120551.219000", "120551.222000", "120551.224000", "120551.227000", "120551.229000", "120551.231000", "120551.234000", "120551.236000", "120551.239000", "120551.247000", "120551.250000", "120551.252000", "120551.254000", "120551.257000", "120551.259000", "120551.261000", "120551.264000", "120551.266000", "120551.269000", "120551.271000", "120551.273000", "120551.276000", "120551.278000", "120611.184000", "120611.187000", "120611.189000", "120611.192000", "120611.194000", "120611.196000", "120611.199000", "120611.201000", "120611.204000", "120611.206000", "120611.208000", "120611.211000", "120611.219000", "120611.222000", "120611.224000", "120611.227000", "120611.229000", "120611.231000", "120611.234000", "120611.236000", "120611.253000", "120611.255000", "120611.257000", "120611.259000", "120611.262000", "120611.264000", "120611.267000", "120611.269000", "120611.272000", "120611.274000", "120611.276000", "120611.279000", "120611.281000", "120631.184000", "120631.187000", "120631.190000", "120631.192000", "120631.194000", "120631.197000", "120631.199000", "120631.201000", "120631.204000", "120631.206000", "120631.209000", "120631.211000", "120631.213000", "120631.216000", "120631.218000", "120631.221000", "120631.223000", "120631.225000", "120631.228000", "120631.230000", "120631.233000", "120631.236000", "120631.238000", "120631.240000", "120631.243000", "120631.245000", "120631.247000", "120631.250000", "120631.252000", "120631.255000", "120631.257000", "120631.264000", "120631.267000", "120651.184000", "120651.187000", "120651.190000", "120651.192000", "120651.194000", "120651.197000", "120651.199000", "120651.201000", "120651.204000", "120651.206000", "120651.208000", "120651.211000", "120651.213000", "120651.215000", "120651.218000", "120651.220000", "120651.223000", "120651.225000", "120651.228000", "120651.230000", "120651.232000", "120651.235000", "120651.237000", "120651.239000", "120651.242000", "120651.244000", "120651.251000", "120651.253000", "120651.255000", "120651.258000", "120651.260000", "120651.262000", "120651.265000", "120711.184000", "120711.187000", "120711.190000", "120711.192000", "120711.194000", "120711.197000", "120711.199000", "120711.201000", "120711.204000", "120711.206000", "120711.208000", "120711.211000", "120711.213000", "120711.216000", "120711.218000", "120711.220000", "120711.223000", "120711.225000", "120711.227000", "120711.230000", "120711.232000", "120711.235000", "120711.237000", "120711.239000", "120711.242000", "120711.244000", "120711.246000", "120711.249000", "120711.251000", "120711.254000", "120711.256000", "120711.258000", "120731.185000", "120731.188000", "120731.191000", "120731.193000", "120731.195000", "120731.198000", "120731.200000", "120731.202000", "120731.205000", "120731.207000", "120731.209000", "120731.212000", "120731.214000", "120731.217000", "120731.219000", "120731.222000", "120731.224000", "120731.226000", "120731.229000", "120731.231000", "120731.233000", "120731.236000", "120731.238000", "120731.241000", "120731.243000", "120731.246000", "120731.248000", "120731.251000", "120731.253000", "120731.256000", "120731.258000", "120731.261000", "120731.263000", "120751.185000", "120751.188000", "120751.191000", "120751.193000", "120751.196000", "120751.198000", "120751.201000", "120751.203000", "120751.206000", "120751.208000", "120751.210000", "120751.213000", "120751.215000", "120751.217000", "120751.220000", "120751.222000", "120751.225000", "120751.231000", "120751.234000", "120751.236000", "120751.239000", "120751.241000", "120751.244000", "120751.246000", "120751.248000", "120751.251000", "120751.253000", "120751.256000", "120751.258000", "120751.260000", "120751.263000", "120751.265000", "120751.268000", "120811.185000", "120811.188000", "120811.191000", "120811.212000", "120811.215000", "120811.217000", "120811.220000", "120811.222000", "120811.224000", "120811.227000", "120811.230000", "120811.237000", "120811.239000", "120811.241000", "120811.244000", "120811.246000", "120811.249000", "120811.251000", "120811.253000", "120811.256000", "120811.258000", "120811.260000", "120811.263000", "120811.265000", "120811.268000", "120811.270000", "120811.272000", "120811.275000", "120811.277000", "120811.280000", "120811.282000", "120811.285000", "120811.287000", "120831.184000", "120831.187000", "120831.189000", "120831.192000", "120831.194000", "120831.197000", "120831.199000", "120831.202000", "120831.204000", "120831.207000", "120831.209000", "120831.211000", "120831.214000", "120831.216000", "120831.227000", "120831.229000", "120831.231000", "120831.234000", "120831.236000", "120831.239000", "120831.241000", "120831.244000", "120831.246000", "120831.249000", "120831.251000", "120831.253000", "120831.256000", "120831.258000", "120831.261000", "120831.263000", "120831.265000", "120831.268000", "120831.270000", "120851.184000", "120851.187000", "120851.189000", "120851.192000", "120851.194000", "120851.196000", "120851.199000", "120851.201000", "120851.204000", "120851.206000", "120851.209000", "120851.211000", "120851.214000", "120851.216000", "120851.219000", "120851.221000", "120851.224000", "120851.226000", "120851.228000", "120851.231000", "120851.233000", "120851.236000", "120851.238000", "120851.240000", "120851.243000", "120851.245000", "120851.2