{"AcquisitionMatrixPE": 64, "AcquisitionNumber": 1, "AcquisitionTime": "12:16:35.692500", "BandwidthPerPixelPhaseEncode": 28.935, "BaseResolution": 64, "BodyPartExamined": "BRAIN", "CoilCombinationMethod": "Sum of Squares", "ConsistencyInfo": "N4_VE11E_LATEST_20181129", "ConversionSoftware": "dcm2niix", "ConversionSoftwareVersion": "v1.0.20230411", "DerivedVendorReportedEchoSpacing": 0.000540003, "DeviceSerialNumber": "166182", "DwellTime": 3.4e-06, "EchoTime": 0.032, "EchoTrainLength": 64, "EffectiveEchoSpacing": 0.000540003, "FlipAngle": 40, "HeudiconvVersion": "0.13.1", "ImageOrientationPatientDICOM": [0.992392, -0.11393, -0.0466694, 0.113069, 0.993371, -0.0207071], "ImageOrientationText": "Tra>Sag(-2.8)>Cor(-0.9)", "ImageType": ["ORIGINAL", "PRIMARY", "M", "ND", "NORM", "MOSAIC"], "ImagingFrequency": 123.255728, "InPlanePhaseEncodingDirectionDICOM": "COL", "InstitutionAddress": "PEARSE STREET .,City,District,IE,D2", "InstitutionName": "TCIN", "InstitutionalDepartmentName": "MRI", "MRAcquisitionType": "2D", "MagneticFieldStrength": 3, "Manufacturer": "Siemens", "ManufacturersModelName": "Prisma", "Modality": "MR", "MultibandAccelerationFactor": 4, "NonlinearGradientCorrection": false, "PartialFourier": 1, "PatientPosition": "HFS", "PercentPhaseFOV": 100, "PercentSampling": 100, "PhaseEncodingDirection": "j-", "PhaseEncodingSteps": 64, "PhaseResolution": 1, "PixelBandwidth": 2300, "ProcedureStepDescription": "Rhodri^Head BOLD", "ProtocolName": "cmrr_mbep2d_Pictures_AP_RDS", "PulseSequenceDetails": "%SiemensSeq%\\ep2d_bold", "ReceiveCoilActiveElements": "HC2,4,6,7", "ReceiveCoilName": "HeadNeck_64", "ReconMatrixPE": 64, "RefLinesPE": 12, "RepetitionTime": 0.61, "SAR": 0.265086, "ScanOptions": "FS", "ScanningSequence": "EP", "SequenceName": "*epfid2d1_64", "SequenceVariant": "SK", "SeriesDescription": "cmrr_mbep2d_Pictures_AP_RDS", "SeriesNumber": 11, "ShimSetting": [-3587, -7444, 3883, 706, 27, 233, 193, 95], "SliceThickness": 3, "SliceTiming": [0.2625, 0, 0.33, 0.0675, 0.395, 0.1325, 0.46, 0.1975, 0.525, 0.2625, 0, 0.33, 0.0675, 0.395, 0.1325, 0.46, 0.1975, 0.525, 0.2625, 0, 0.33, 0.0675, 0.395, 0.1325, 0.46, 0.1975, 0.525, 0.2625, 0, 0.33, 0.0675, 0.395, 0.1325, 0.46, 0.1975, 0.525], "SoftwareVersions": "syngo MR E11", "SpacingBetweenSlices": 3.3, "StationName": "AWP166182", "TaskName": "pictures", "TotalReadoutTime": 0.0340202, "TxRefAmp": 249.772, "dcmmeta_affine": [[-2.9771759510040283, 0.3392064571380615, -0.1607733964920044, 86.50495910644531], [0.3417905271053314, 2.980113983154297, -0.0503997728228569, -107.2026138305664], [-0.14000822603702545, 0.062121156603097916, 3.2956960201263428, -75.22296142578125], [0.0, 0.0, 0.0, 1.0]], "dcmmeta_reorient_transform": [[0.0, -1.0, 0.0, 63.0], [1.0, 0.0, 0.0, 0.0], [0.0, 0.0, 1.0, 0.0], [0.0, 0.0, 0.0, 1.0]], "dcmmeta_shape": [64, 64, 36, 510], "dcmmeta_slice_dim": 2, "dcmmeta_version": 0.6, "global": {"const": {"AcquisitionMatrix": [64, 0, 0, 64], "AngioFlag": "N", "BitsAllocated": 16, "BitsStored": 12, "BodyPartExamined": "BRAIN", "Columns": 384, "EchoNumbers": 1, "EchoTime": 32.0, "EchoTrainLength": 64, "FlipAngle": 40.0, "HighBit": 11, "ImageOrientationPatient": [0.99239199979958, -0.1139301768754, -0.0466694067987, 0.1130688166002, 0.99337136092744, -0.0207070519825], "ImagePositionPatient": [-638.49615360824, -502.67633972066, -38.968625562379], "ImageType": ["ORIGINAL", "PRIMARY", "M", "ND", "NORM", "MOSAIC"], "ImagedNucleus": "1H", "ImagingFrequency": 123.255728, "InPlanePhaseEncodingDirection": "COL", "MRAcquisitionType": "2D", "MagneticFieldStrength": 3.0, "Manufacturer": "SIEMENS", "ManufacturerModelName": "Prisma", "Modality": "MR", "NumberOfAverages": 1.0, "NumberOfPhaseEncodingSteps": 64, "PercentPhaseFieldOfView": 100.0, "PercentSampling": 100.0, "PerformedProcedureStepStartTime": "115122.203000", "PhotometricInterpretation": "MONOCHROME2", "PixelBandwidth": 2300.0, "PixelRepresentation": 0, "PixelSpacing": [3.0, 3.0], "ProtocolName": "cmrr_mbep2d_Pictures_AP_RDS", "RepetitionTime": 610.0, "Rows": 384, "SAR": 0.26508589713554, "SamplesPerPixel": 1, "ScanOptions": "FS", "ScanningSequence": "EP", "SequenceName": "*epfid2d1_64", "SequenceVariant": "SK", "SeriesDescription": "cmrr_mbep2d_Pictures_AP_RDS", "SeriesNumber": 11, "SeriesTime": "121651.353000", "SliceLocation": -77.702032639737, "SliceThickness": 3.0, "SmallestImagePixelValue": 0, "SoftwareVersions": "syngo MR E11", "SpacingBetweenSlices": 3.2999999840094, "SpecificCharacterSet": "ISO_IR 100", "StudyID": "1", "StudyTime": "115122.130000", "TransmitCoilName": "Body", "VariableFlipAngleFlag": "N", "WindowCenterWidthExplanation": "Algo1"}, "slices": {}}, "time": {"samples": {"AcquisitionNumber": [1, 2, 3, 4, 5, 6, 7, 8, 9, 10, 11, 12, 13, 14, 15, 16, 17, 18, 19, 20, 21, 22, 23, 24, 25, 26, 27, 28, 29, 30, 31, 32, 33, 34, 35, 36, 37, 38, 39, 40, 41, 42, 43, 44, 45, 46, 47, 48, 49, 50, 51, 52, 53, 54, 55, 56, 57, 58, 59, 60, 61, 62, 63, 64, 65, 66, 67, 68, 69, 70, 71, 72, 73, 74, 75, 76, 77, 78, 79, 80, 81, 82, 83, 84, 85, 86, 87, 88, 89, 90, 91, 92, 93, 94, 95, 96, 97, 98, 99, 100, 101, 102, 103, 104, 105, 106, 107, 108, 109, 110, 111, 112, 113, 114, 115, 116, 117, 118, 119, 120, 121, 122, 123, 124, 125, 126, 127, 128, 129, 130, 131, 132, 133, 134, 135, 136, 137, 138, 139, 140, 141, 142, 143, 144, 145, 146, 147, 148, 149, 150, 151, 152, 153, 154, 155, 156, 157, 158, 159, 160, 161, 162, 163, 164, 165, 166, 167, 168, 169, 170, 171, 172, 173, 174, 175, 176, 177, 178, 179, 180, 181, 182, 183, 184, 185, 186, 187, 188, 189, 190, 191, 192, 193, 194, 195, 196, 197, 198, 199, 200, 201, 202, 203, 204, 205, 206, 207, 208, 209, 210, 211, 212, 213, 214, 215, 216, 217, 218, 219, 220, 221, 222, 223, 224, 225, 226, 227, 228, 229, 230, 231, 232, 233, 234, 235, 236, 237, 238, 239, 240, 241, 242, 243, 244, 245, 246, 247, 248, 249, 250, 251, 252, 253, 254, 255, 256, 257, 258, 259, 260, 261, 262, 263, 264, 265, 266, 267, 268, 269, 270, 271, 272, 273, 274, 275, 276, 277, 278, 279, 280, 281, 282, 283, 284, 285, 286, 287, 288, 289, 290, 291, 292, 293, 294, 295, 296, 297, 298, 299, 300, 301, 302, 303, 304, 305, 306, 307, 308, 309, 310, 311, 312, 313, 314, 315, 316, 317, 318, 319, 320, 321, 322, 323, 324, 325, 326, 327, 328, 329, 330, 331, 332, 333, 334, 335, 336, 337, 338, 339, 340, 341, 342, 343, 344, 345, 346, 347, 348, 349, 350, 351, 352, 353, 354, 355, 356, 357, 358, 359, 360, 361, 362, 363, 364, 365, 366, 367, 368, 369, 370, 371, 372, 373, 374, 375, 376, 377, 378, 379, 380, 381, 382, 383, 384, 385, 386, 387, 388, 389, 390, 391, 392, 393, 394, 395, 396, 397, 398, 399, 400, 401, 402, 403, 404, 405, 406, 407, 408, 409, 410, 411, 412, 413, 414, 415, 416, 417, 418, 419, 420, 421, 422, 423, 424, 425, 426, 427, 428, 429, 430, 431, 432, 433, 434, 435, 436, 437, 438, 439, 440, 441, 442, 443, 444, 445, 446, 447, 448, 449, 450, 451, 452, 453, 454, 455, 456, 457, 458, 459, 460, 461, 462, 463, 464, 465, 466, 467, 468, 469, 470, 471, 472, 473, 474, 475, 476, 477, 478, 479, 480, 481, 482, 483, 484, 485, 486, 487, 488, 489, 490, 491, 492, 493, 494, 495, 496, 497, 498, 499, 500, 501, 502, 503, 504, 505, 506, 507, 508, 509, 510], "AcquisitionTime": ["121635.692500", "121636.302500", "121636.912500", "121637.522500", "121638.132500", "121638.742500", "121639.352500", "121639.962500", "121640.572500", "121641.182500", "121641.792500", "121642.402500", "121643.012500", "121643.622500", "121644.232500", "121644.842500", "121645.452500", "121646.062500", "121646.672500", "121647.282500", "121647.892500", "121648.502500", "121649.112500", "121649.722500", "121650.332500", "121650.942500", "121651.552500", "121652.162500", "121652.772500", "121653.382500", "121653.992500", "121654.602500", "121655.212500", "121655.822500", "121656.432500", "121657.042500", "121657.652500", "121658.262500", "121658.872500", "121659.482500", "121700.092500", "121700.702500", "121701.312500", "121701.922500", "121702.532500", "121703.142500", "121703.752500", "121704.362500", "121704.972500", "121705.582500", "121706.192500", "121706.802500", "121707.412500", "121708.022500", "121708.632500", "121709.242500", "121709.852500", "121710.462500", "121711.072500", "121711.682500", "121712.292500", "121712.902500", "121713.512500", "121714.122500", "121714.732500", "121715.342500", "121715.952500", "121716.562500", "121717.172500", "121717.782500", "121718.392500", "121719.002500", "121719.612500", "121720.222500", "121720.832500", "121721.442500", "121722.052500", "121722.662500", "121723.272500", "121723.882500", "121724.492500", "121725.102500", "121725.712500", "121726.322500", "121726.932500", "121727.542500", "121728.152500", "121728.762500", "121729.372500", "121729.982500", "121730.592500", "121731.202500", "121731.812500", "121732.422500", "121733.032500", "121733.642500", "121734.252500", "121734.862500", "121735.472500", "121736.082500", "121736.692500", "121737.302500", "121737.912500", "121738.522500", "121739.132500", "121739.742500", "121740.352500", "121740.962500", "121741.572500", "121742.182500", "121742.792500", "121743.402500", "121744.012500", "121744.622500", "121745.232500", "121745.842500", "121746.452500", "121747.062500", "121747.672500", "121748.282500", "121748.892500", "121749.502500", "121750.112500", "121750.722500", "121751.332500", "121751.942500", "121752.552500", "121753.162500", "121753.772500", "121754.382500", "121754.992500", "121755.602500", "121756.212500", "121756.822500", "121757.432500", "121758.042500", "121758.652500", "121759.262500", "121759.872500", "121800.482500", "121801.092500", "121801.702500", "121802.312500", "121802.922500", "121803.532500", "121804.142500", "121804.752500", "121805.362500", "121805.972500", "121806.582500", "121807.192500", "121807.802500", "121808.412500", "121809.022500", "121809.632500", "121810.242500", "121810.852500", "121811.462500", "121812.072500", "121812.682500", "121813.292500", "121813.902500", "121814.512500", "121815.122500", "121815.732500", "121816.342500", "121816.952500", "121817.562500", "121818.172500", "121818.782500", "121819.392500", "121820.002500", "121820.612500", "121821.222500", "121821.832500", "121822.442500", "121823.052500", "121823.662500", "121824.272500", "121824.882500", "121825.492500", "121826.102500", "121826.712500", "121827.322500", "121827.932500", "121828.542500", "121829.152500", "121829.762500", "121830.372500", "121830.982500", "121831.592500", "121832.202500", "121832.812500", "121833.422500", "121834.032500", "121834.642500", "121835.252500", "121835.862500", "121836.472500", "121837.082500", "121837.692500", "121838.302500", "121838.912500", "121839.522500", "121840.132500", "121840.742500", "121841.352500", "121841.962500", "121842.572500", "121843.182500", "121843.792500", "121844.402500", "121845.012500", "121845.622500", "121846.232500", "121846.842500", "121847.452500", "121848.062500", "121848.672500", "121849.282500", "121849.892500", "121850.502500", "121851.112500", "121851.722500", "121852.332500", "121852.942500", "121853.552500", "121854.162500", "121854.772500", "121855.382500", "121855.992500", "121856.602500", "121857.212500", "121857.822500", "121858.432500", "121859.042500", "121859.652500", "121900.262500", "121900.872500", "121901.482500", "121902.092500", "121902.702500", "121903.312500", "121903.922500", "121904.532500", "121905.142500", "121905.752500", "121906.362500", "121906.972500", "121907.582500", "121908.192500", "121908.802500", "121909.412500", "121910.022500", "121910.632500", "121911.242500", "121911.852500", "121912.462500", "121913.072500", "121913.682500", "121914.292500", "121914.902500", "121915.512500", "121916.122500", "121916.732500", "121917.342500", "121917.952500", "121918.562500", "121919.172500", "121919.782500", "121920.392500", "121921.002500", "121921.612500", "121922.222500", "121922.832500", "121923.442500", "121924.052500", "121924.662500", "121925.272500", "121925.882500", "121926.492500", "121927.102500", "121927.712500", "121928.322500", "121928.932500", "121929.542500", "121930.152500", "121930.762500", "121931.372500", "121931.982500", "121932.592500", "121933.202500", "121933.812500", "121934.422500", "121935.032500", "121935.642500", "121936.252500", "121936.862500", "121937.472500", "121938.082500", "121938.692500", "121939.302500", "121939.912500", "121940.522500", "121941.132500", "121941.742500", "121942.352500", "121942.962500", "121943.572500", "121944.182500", "121944.792500", "121945.402500", "121946.012500", "121946.622500", "121947.232500", "121947.842500", "121948.452500", "121949.062500", "121949.672500", "121950.282500", "121950.892500", "121951.502500", "121952.112500", "121952.722500", "121953.332500", "121953.942500", "121954.552500", "121955.162500", "121955.772500", "121956.382500", "121956.992500", "121957.602500", "121958.212500", "121958.822500", "121959.432500", "122000.042500", "122000.652500", "122001.262500", "122001.872500", "122002.482500", "122003.092500", "122003.702500", "122004.312500", "122004.922500", "122005.532500", "122006.142500", "122006.752500", "122007.362500", "122007.972500", "122008.582500", "122009.192500", "122009.802500", "122010.412500", "122011.022500", "122011.632500", "122012.242500", "122012.852500", "122013.462500", "122014.072500", "122014.682500", "122015.292500", "122015.902500", "122016.512500", "122017.122500", "122017.732500", "122018.342500", "122018.952500", "122019.562500", "122020.172500", "122020.782500", "122021.392500", "122022.002500", "122022.612500", "122023.222500", "122023.832500", "122024.442500", "122025.052500", "122025.662500", "122026.272500", "122026.882500", "122027.492500", "122028.102500", "122028.712500", "122029.322500", "122029.932500", "122030.542500", "122031.152500", "122031.762500", "122032.372500", "122032.982500", "122033.592500", "122034.202500", "122034.812500", "122035.422500", "122036.032500", "122036.642500", "122037.252500", "122037.862500", "122038.472500", "122039.082500", "122039.692500", "122040.302500", "122040.912500", "122041.522500", "122042.132500", "122042.742500", "122043.352500", "122043.962500", "122044.572500", "122045.182500", "122045.792500", "122046.402500", "122047.012500", "122047.622500", "122048.232500", "122048.842500", "122049.452500", "122050.062500", "122050.672500", "122051.282500", "122051.892500", "122052.502500", "122053.112500", "122053.722500", "122054.332500", "122054.942500", "122055.552500", "122056.162500", "122056.772500", "122057.382500", "122057.992500", "122058.602500", "122059.212500", "122059.822500", "122100.432500", "122101.042500", "122101.652500", "122102.262500", "122102.872500", "122103.482500", "122104.092500", "122104.702500", "122105.312500", "122105.922500", "122106.532500", "122107.142500", "122107.752500", "122108.362500", "122108.972500", "122109.582500", "122110.192500", "122110.802500", "122111.412500", "122112.022500", "122112.632500", "122113.242500", "122113.852500", "122114.462500", "122115.072500", "122115.682500", "122116.292500", "122116.902500", "122117.512500", "122118.122500", "122118.732500", "122119.342500", "122119.952500", "122120.562500", "122121.172500", "122121.782500", "122122.392500", "122123.002500", "122123.612500", "122124.222500", "122124.832500", "122125.442500", "122126.052500", "122126.662500", "122127.272500", "122127.882500", "122128.492500", "122129.102500", "122129.712500", "122130.322500", "122130.932500", "122131.542500", "122132.152500", "122132.762500", "122133.372500", "122133.982500", "122134.592500", "122135.202500", "122135.812500", "122136.422500", "122137.032500", "122137.642500", "122138.252500", "122138.862500", "122139.472500", "122140.082500", "122140.692500", "122141.302500", "122141.912500", "122142.522500", "122143.132500", "122143.742500", "122144.352500", "122144.962500", "122145.572500", "122146.182500"], "ContentTime": ["121651.357000", "121651.360000", "121651.362000", "121651.365000", "121651.367000", "121651.369000", "121651.372000", "121651.374000", "121651.376000", "121651.379000", "121651.381000", "121651.384000", "121651.386000", "121651.395000", "121651.398000", "121651.400000", "121651.402000", "121651.405000", "121651.407000", "121651.419000", "121651.421000", "121651.423000", "121651.426000", "121651.428000", "121651.431000", "121711.352000", "121711.355000", "121711.358000", "121711.360000", "121711.362000", "121711.365000", "121711.367000", "121711.370000", "121711.372000", "121711.374000", "121711.377000", "121711.379000", "121711.382000", "121711.384000", "121711.428000", "121711.431000", "121711.433000", "121711.436000", "121711.438000", "121711.440000", "121711.443000", "121711.445000", "121711.448000", "121711.450000", "121711.452000", "121711.455000", "121711.457000", "121711.459000", "121711.462000", "121711.464000", "121711.467000", "121711.469000", "121711.471000", "121731.352000", "121731.355000", "121731.357000", "121731.359000", "121731.362000", "121731.364000", "121731.367000", "121731.369000", "121731.371000", "121731.374000", "121731.376000", "121731.379000", "121731.381000", "121731.383000", "121731.386000", "121731.388000", "121731.390000", "121731.393000", "121731.395000", "121731.398000", "121731.400000", "121731.402000", "121731.405000", "121731.407000", "121731.410000", "121731.412000", "121731.414000", "121731.417000", "121731.419000", "121731.421000", "121731.424000", "121731.427000", "121751.352000", "121751.355000", "121751.357000", "121751.360000", "121751.362000", "121751.365000", "121751.367000", "121751.369000", "121751.372000", "121751.374000", "121751.377000", "121751.379000", "121751.381000", "121751.384000", "121751.386000", "121751.389000", "121751.391000", "121751.394000", "121751.396000", "121751.399000", "121751.401000", "121751.403000", "121751.406000", "121751.408000", "121751.411000", "121751.413000", "121751.416000", "121751.418000", "121751.420000", "121751.423000", "121751.425000", "121751.428000", "121751.430000", "121811.352000", "121811.355000", "121811.358000", "121811.360000", "121811.362000", "121811.365000", "121811.367000", "121811.369000", "121811.372000", "121811.374000", "121811.377000", "121811.379000", "121811.381000", "121811.384000", "121811.386000", "121811.389000", "121811.391000", "121811.394000", "121811.396000", "121811.398000", "121811.401000", "121811.403000", "121811.406000", "121811.408000", "121811.410000", "121811.413000", "121811.415000", "121811.418000", "121811.420000", "121811.422000", "121811.425000", "121811.427000", "121811.430000", "121831.352000", "121831.355000", "121831.357000", "121831.360000", "121831.362000", "121831.365000", "121831.367000", "121831.369000", "121831.372000", "121831.374000", "121831.384000", "121831.387000", "121831.389000", "121831.392000", "121831.394000", "121831.396000", "121831.399000", "121831.401000", "121831.403000", "121831.406000", "121831.408000", "121831.411000", "121831.413000", "121831.416000", "121831.418000", "121831.420000", "121831.423000", "121831.425000", "121831.428000", "121831.430000", "121831.432000", "121831.435000", "121831.437000", "121851.351000", "121851.354000", "121851.356000", "121851.359000", "121851.361000", "121851.363000", "121851.366000", "121851.368000", "121851.371000", "121851.373000", "121851.375000", "121851.378000", "121851.380000", "121851.383000", "121851.385000", "121851.387000", "121851.390000", "121851.392000", "121851.394000", "121851.397000", "121851.399000", "121851.402000", "121851.404000", "121851.406000", "121851.409000", "121851.411000", "121851.414000", "121851.416000", "121851.419000", "121851.421000", "121851.424000", "121851.426000", "121851.429000", "121911.352000", "121911.355000", "121911.357000", "121911.360000", "121911.362000", "121911.365000", "121911.367000", "121911.369000", "121911.372000", "121911.374000", "121911.377000", "121911.379000", "121911.389000", "121911.391000", "121911.394000", "121911.396000", "121911.399000", "121911.401000", "121911.404000", "121911.406000", "121911.409000", "121911.411000", "121911.413000", "121911.416000", "121911.418000", "121911.421000", "121911.423000", "121911.426000", "121911.428000", "121911.430000", "121911.433000", "121911.435000", "121931.352000", "121931.355000", "121931.357000", "121931.360000", "121931.362000", "121931.365000", "121931.368000", "121931.371000", "121931.373000", "121931.375000", "121931.378000", "121931.380000", "121931.383000", "121931.385000", "121931.388000", "121931.390000", "121931.392000", "121931.395000", "121931.397000", "121931.400000", "121931.402000", "121931.404000", "121931.407000", "121931.409000", "121931.412000", "121931.414000", "121931.416000", "121931.419000", "121931.421000", "121931.424000", "121931.426000", "121931.429000", "121931.431000", "121951.352000", "121951.355000", "121951.357000", "121951.360000", "121951.362000", "121951.365000", "121951.367000", "121951.370000", "121951.372000", "121951.374000", "121951.377000", "121951.379000", "121951.382000", "121951.384000", "121951.387000", "121951.389000", "121951.391000", "121951.394000", "121951.396000", "121951.398000", "121951.401000", "121951.403000", "121951.406000", "121951.408000", "121951.410000", "121951.413000", "121951.416000", "121951.443000", "121951.446000", "121951.448000", "121951.451000", "121951.453000", "121951.456000", "122011.352000", "122011.355000", "122011.357000", "122011.360000", "122011.362000", "122011.365000", "122011.367000", "122011.369000", "122011.372000", "122011.374000", "122011.376000", "122011.379000", "122011.381000", "122011.384000", "122011.386000", "122011.389000", "122011.391000", "122011.394000", "122011.396000", "122011.398000", "122011.401000", "122011.403000", "122011.406000", "122011.408000", "122011.410000", "122011.413000", "122011.415000", "122011.418000", "122011.420000", "122011.422000", "122011.425000", "122011.427000", "122011.430000", "122031.352000", "122031.355000", "122031.357000", "122031.360000", "122031.362000", "122031.365000", "122031.367000", "122031.369000", "122031.372000", "122031.374000", "122031.377000", "122031.379000", "122031.382000", "122031.390000", "122031.392000", "122031.394000", "122031.397000", "122031.399000", "122031.402000", "122031.404000", "122031.407000", "122031.409000", "122031.412000", "122031.414000", "122031.416000", "122031.419000", "122031.421000", "122031.423000", "122031.426000", "122031.428000", "122031.431000", "122031.433000", "122031.436000", "122051.352000", "122051.355000", "122051.357000", "122051.360000", "122051.362000", "122051.364000", "122051.367000", "122051.369000", "122051.372000", "122051.374000", "122051.376000", "122051.379000", "122051.381000", "122051.384000", "122051.386000", "122051.388000", "122051.391000", "122051.393000", "122051.396000", "122051.398000", "122051.400000", "122051.403000", "122051.405000", "122051.408000", "122051.410000", "122051.412000", "122051.415000", "122051.418000", "122051.420000", "122051.423000", "122051.426000", "122051.428000", "122111.351000", "122111.354000", "122111.357000", "122111.359000", "122111.362000", "122111.364000", "122111.367000", "122111.369000", "122111.371000", "122111.374000", "122111.376000", "122111.378000", "122111.381000", "122111.383000", "122111.386000", "122111.388000", "122111.391000", "122111.393000", "122111.396000", "122111.398000", "122111.400000", "122111.403000", "122111.405000", "122111.408000", "122111.411000", "122111.413000", "122111.416000", "122111.418000", "122111.420000", "122111.423000", "122111.425000", "122111.427000", "122111.430000", "122131.352000", "122131.355000", "122131.357000", "122131.360000", "122131.362000", "122131.365000", "122131.367000", "122131.369000", "122131.372000", "122131.374000", "122131.377000", "122131.379000", "122131.381000", "122131.384000", "122131.386000", "122131.389000", "122131.391000", "122131.393000", "122131.396000", "122131.398000", "122131.401000", "122131.403000", "122131.406000", "122131.408000", "122131.410000", "122131.413000", "122131.415000", "122131.418000", "122131.420000", "122131.422000", "122131.425000", "122131.427000", "122131.430000", "122146.910000", "122146.913000", "122146.915000", "122146.918000", "122146.920000", "122146.923000", "122146.925000", "122146.928000", "122146.930000", "122146.933000", "122146.935000", "122146.937000", "122146.940000", "122146.942000", "122146.944000", "122146.947000", "122146.949000", "122146.952000", "122146.954000", "122146.957000", "122146.959000", "122146.961000", "122146.964000", "122146.966000", "122146.969000", "122146.971000"], "InstanceCreationTime": ["121651.357000", "121651.360000", "121651.362000", "121651.365000", "121651.367000", "121651.369000", "121651.372000", "121651.374000", "121651.376000", "121651.379000", "121651.381000", "121651.384000", "121651.386000", "121651.395000", "121651.398000", "121651.400000", "121651.402000", "121651.405000", "121651.407000", "121651.419000", "121651.421000", "121651.423000", "121651.426000", "121651.428000", "121651.431000", "121711.352000", "121711.355000", "121711.358000", "121711.360000", "121711.362000", "121711.365000", "121711.367000", "121711.370000", "121711.372000", "121711.374000", "121711.377000", "121711.379000", "121711.382000", "121711.384000", "121711.428000", "121711.431000", "121711.433000", "121711.436000", "121711.438000", "121711.440000", "121711.443000", "121711.445000", "121711.448000", "121711.450000", "121711.452000", "121711.455000", "121711.457000", "121711.459000", "121711.462000", "121711.464000", "121711.467000", "121711.469000", "121711.471000", "121731.352000", "121731.355000", "121731.357000", "121731.359000", "121731.362000", "121731.364000", "121731.367000", "121731.369000", "121731.371000", "121731.374000", "121731.376000", "121731.379000", "121731.381000", "121731.383000", "121731.386000", "121731.388000", "121731.390000", "121731.393000", "121731.395000", "121731.398000", "121731.400000", "121731.402000", "121731.405000", "121731.407000", "121731.410000", "121731.412000", "121731.414000", "121731.417000", "121731.419000", "121731.421000", "121731.424000", "121731.427000", "121751.352000", "121751.355000", "121751.357000", "121751.360000", "121751.362000", "121751.365000", "121751.367000", "121751.369000", "121751.372000", "121751.374000", "121751.377000", "121751.379000", "121751.381000", "121751.384000", "121751.386000", "121751.389000", "121751.391000", "121751.394000", "121751.396000", "121751.399000", "121751.401000", "121751.403000", "121751.406000", "121751.408000", "121751.411000", "121751.413000", "121751.416000", "121751.418000", "121751.420000", "121751.423000", "121751.425000", "121751.428000", "121751.430000", "121811.352000", "121811.355000", "121811.358000", "121811.360000", "121811.362000", "121811.365000", "121811.367000", "121811.369000", "121811.372000", "121811.374000", "121811.377000", "121811.379000", "121811.381000", "121811.384000", "121811.386000", "121811.389000", "121811.391000", "121811.394000", "121811.396000", "121811.398000", "121811.401000", "121811.403000", "121811.406000", "121811.408000", "121811.410000", "121811.413000", "121811.415000", "121811.418000", "121811.420000", "121811.422000", "121811.425000", "121811.427000", "121811.430000", "121831.352000", "121831.355000", "121831.357000", "121831.360000", "121831.362000", "121831.365000", "121831.367000", "121831.369000", "121831.372000", "121831.374000", "121831.384000", "121831.387000", "121831.389000", "121831.392000", "121831.394000", "121831.396000", "121831.399000", "121831.401000", "121831.403000", "121831.406000", "121831.408000", "121831.411000", "121831.413000", "121831.416000", "121831.418000", "121831.420000", "121831.423000", "121831.425000", "121831.428000", "121831.430000", "121831.432000", "121831.435000", "121831.437000", "121851.351000", "121851.354000", "121851.356000", "121851.359000", "121851.361000", "121851.363000", "121851.366000", "121851.368000", "121851.371000", "121851.373000", "121851.375000", "121851.378000", "121851.380000", "121851.383000", "121851.385000", "121851.387000", "121851.390000", "121851.392000", "121851.394000", "121851.397000", "121851.399000", "121851.402000", "121851.404000", "121851.406000", "121851.409000", "121851.411000", "121851.414000", "121851.416000", "121851.419000", "121851.421000", "121851.424000", "121851.426000", "121851.429000", "121911.352000", "121911.355000", "121911.357000", "121911.360000", "121911.362000", "121911.365000", "121911.367000", "121911.369000", "121911.372000", "121911.374000", "121911.377000", "121911.379000", "121911.389000", "121911.391000", "121911.394000", "121911.396000", "121911.399000", "121911.401000", "121911.404000", "121911.406000", "121911.409000", "121911.411000", "121911.413000", "121911.416000", "121911.418000", "121911.421000", "121911.423000", "121911.426000", "121911.428000", "121911.430000", "121911.433000", "121911.435000", "121931.352000", "121931.355000", "121931.357000", "121931.360000", "121931.362000", "121931.365000", "121931.368000", "121931.371000", "121931.373000", "121931.375000", "121931.378000", "121931.380000", "121931.383000", "121931.385000", "121931.388000", "121931.390000", "121931.392000", "121931.395000", "121931.397000", "121931.400000", "121931.402000", "121931.404000", "121931.407000", "121931.409000", "121931.412000", "121931.414000", "121931.416000", "121931.419000", "121931.421000", "121931.424000", "121931.426000", "121931.429000", "121931.431000", "121951.352000", "121951.355000", "121951.357000", "121951.360000", "121951.362000", "121951.365000", "121951.367000", "121951.370000", "121951.372000", "121951.374000", "121951.377000", "121951.379000", "121951.382000", "121951.384000", "121951.387000", "121951.389000", "121951.391000", "121951.394000", "121951.396000", "121951.398000", "121951.401000", "121951.403000", "121951.406000", "121951.408000", "121951.410000", "121951.413000", "121951.416000", "121951.443000", "121951.446000", "121951.448000", "121951.451000", "121951.453000", "121951.456000", "122011.352