{"AcquisitionMatrixPE": 64, "AcquisitionNumber": 1, "AcquisitionTime": "10:21:24.732500", "BandwidthPerPixelPhaseEncode": 28.935, "BaseResolution": 64, "BodyPartExamined": "BRAIN", "CoilCombinationMethod": "Sum of Squares", "ConsistencyInfo": "N4_VE11E_LATEST_20181129", "ConversionSoftware": "dcm2niix", "ConversionSoftwareVersion": "v1.0.20230411", "DerivedVendorReportedEchoSpacing": 0.000540003, "DeviceSerialNumber": "166182", "DwellTime": 3.4e-06, "EchoTime": 0.032, "EchoTrainLength": 64, "EffectiveEchoSpacing": 0.000540003, "FlipAngle": 40, "HeudiconvVersion": "0.13.1", "ImageOrientationPatientDICOM": [0.998557, -0.00811918, -0.0530815, 0.0106315, 0.998828, 0.0472204], "ImageOrientationText": "Tra>Sag(-3.0)>Cor(2.7)", "ImageType": ["ORIGINAL", "PRIMARY", "M", "ND", "NORM", "MOSAIC"], "ImagingFrequency": 123.255478, "InPlanePhaseEncodingDirectionDICOM": "COL", "InstitutionAddress": "PEARSE STREET .,City,District,IE,D2", "InstitutionName": "TCIN", "InstitutionalDepartmentName": "MRI", "MRAcquisitionType": "2D", "MagneticFieldStrength": 3, "Manufacturer": "Siemens", "ManufacturersModelName": "Prisma", "Modality": "MR", "MultibandAccelerationFactor": 4, "NonlinearGradientCorrection": false, "PartialFourier": 1, "PatientPosition": "HFS", "PercentPhaseFOV": 100, "PercentSampling": 100, "PhaseEncodingDirection": "j-", "PhaseEncodingSteps": 64, "PhaseResolution": 1, "PixelBandwidth": 2300, "ProcedureStepDescription": "Rhodri^Head BOLD", "ProtocolName": "cmrr_mbep2d_Pictures_AP_RDS", "PulseSequenceDetails": "%SiemensSeq%\\ep2d_bold", "ReceiveCoilActiveElements": "HC2,4,6,7;SC", "ReceiveCoilName": "SpecialPurpose_4", "ReconMatrixPE": 64, "RefLinesPE": 12, "RepetitionTime": 0.61, "SAR": 0.271614, "ScanOptions": "FS", "ScanningSequence": "EP", "SequenceName": "*epfid2d1_64", "SequenceVariant": "SK", "SeriesDescription": "cmrr_mbep2d_Pictures_AP_RDS", "SeriesNumber": 10, "ShimSetting": [-3541, -7513, 3803, 968, -153, -204, 564, 244], "SliceThickness": 3, "SliceTiming": [0.2625, 0, 0.3275, 0.065, 0.3925, 0.1325, 0.46, 0.1975, 0.525, 0.2625, 0, 0.3275, 0.065, 0.3925, 0.1325, 0.46, 0.1975, 0.525, 0.2625, 0, 0.3275, 0.065, 0.3925, 0.1325, 0.46, 0.1975, 0.525, 0.2625, 0, 0.3275, 0.065, 0.3925, 0.1325, 0.46, 0.1975, 0.525], "SoftwareVersions": "syngo MR E11", "SpacingBetweenSlices": 3.3, "StationName": "AWP166182", "TaskName": "pictures", "TotalReadoutTime": 0.0340202, "TxRefAmp": 239.595, "dcmmeta_affine": [[-2.995671510696411, 0.03189457952976227, -0.17369838058948517, 95.19942474365234], [0.024357525631785393, 2.99648380279541, 0.15746477246284485, -100.63116455078125], [-0.15924443304538727, -0.14166118204593658, 3.291661262512207, -84.16075134277344], [0.0, 0.0, 0.0, 1.0]], "dcmmeta_reorient_transform": [[0.0, -1.0, 0.0, 63.0], [1.0, 0.0, 0.0, 0.0], [0.0, 0.0, 1.0, 0.0], [0.0, 0.0, 0.0, 1.0]], "dcmmeta_shape": [64, 64, 36, 252], "dcmmeta_slice_dim": 2, "dcmmeta_version": 0.6, "global": {"const": {"AcquisitionMatrix": [64, 0, 0, 64], "AngioFlag": "N", "BitsAllocated": 16, "BitsStored": 12, "BodyPartExamined": "BRAIN", "Columns": 384, "EchoNumbers": 1, "EchoTime": 32.0, "EchoTrainLength": 64, "FlipAngle": 40.0, "HighBit": 11, "ImageOrientationPatient": [0.99855717688724, -0.0081191753893, -0.0530814796137, 0.0106315267235, 0.9988279157148, 0.04722039208169], "ImagePositionPatient": [-581.61935763816, -563.68750959688, -90.27208487062], "ImageType": ["ORIGINAL", "PRIMARY", "M", "ND", "NORM", "MOSAIC"], "ImagedNucleus": "1H", "ImagingFrequency": 123.255478, "InPlanePhaseEncodingDirection": "COL", "MRAcquisitionType": "2D", "MagneticFieldStrength": 3.0, "Manufacturer": "SIEMENS", "ManufacturerModelName": "Prisma", "Modality": "MR", "NumberOfAverages": 1.0, "NumberOfPhaseEncodingSteps": 64, "PercentPhaseFieldOfView": 100.0, "PercentSampling": 100.0, "PerformedProcedureStepStartTime": "095832.376000", "PhotometricInterpretation": "MONOCHROME2", "PixelBandwidth": 2300.0, "PixelRepresentation": 0, "PixelSpacing": [3.0, 3.0], "ProtocolName": "cmrr_mbep2d_Pictures_AP_RDS", "RepetitionTime": 610.0, "Rows": 384, "SAR": 0.27161359712972, "SamplesPerPixel": 1, "ScanOptions": "FS", "ScanningSequence": "EP", "SequenceName": "*epfid2d1_64", "SequenceVariant": "SK", "SeriesDescription": "cmrr_mbep2d_Pictures_AP_RDS", "SeriesNumber": 10, "SeriesTime": "102156.885000", "SliceLocation": -93.760768629512, "SliceThickness": 3.0, "SmallestImagePixelValue": 0, "SoftwareVersions": "syngo MR E11", "SpacingBetweenSlices": 3.2999999961713, "SpecificCharacterSet": "ISO_IR 100", "StudyID": "1", "StudyTime": "095832.181000", "TransmitCoilName": "Body", "VariableFlipAngleFlag": "N", "WindowCenterWidthExplanation": "Algo1"}, "slices": {}}, "time": {"samples": {"AcquisitionNumber": [1, 2, 3, 4, 5, 6, 7, 8, 9, 10, 11, 12, 13, 14, 15, 16, 17, 18, 19, 20, 21, 22, 23, 24, 25, 26, 27, 28, 29, 30, 31, 32, 33, 34, 35, 36, 37, 38, 39, 40, 41, 42, 43, 44, 45, 46, 47, 48, 49, 50, 51, 52, 53, 54, 55, 56, 57, 58, 59, 60, 61, 62, 63, 64, 65, 66, 67, 68, 69, 70, 71, 72, 73, 74, 75, 76, 77, 78, 79, 80, 81, 82, 83, 84, 85, 86, 87, 88, 89, 90, 91, 92, 93, 94, 95, 96, 97, 98, 99, 100, 101, 102, 103, 104, 105, 106, 107, 108, 109, 110, 111, 112, 113, 114, 115, 116, 117, 118, 119, 120, 121, 122, 123, 124, 125, 126, 127, 128, 129, 130, 131, 132, 133, 134, 135, 136, 137, 138, 139, 140, 141, 142, 143, 144, 145, 146, 147, 148, 149, 150, 151, 152, 153, 154, 155, 156, 157, 158, 159, 160, 161, 162, 163, 164, 165, 166, 167, 168, 169, 170, 171, 172, 173, 174, 175, 176, 177, 178, 179, 180, 181, 182, 183, 184, 185, 186, 187, 188, 189, 190, 191, 192, 193, 194, 195, 196, 197, 198, 199, 200, 201, 202, 203, 204, 205, 206, 207, 208, 209, 210, 211, 212, 213, 214, 215, 216, 217, 218, 219, 220, 221, 222, 223, 224, 225, 226, 227, 228, 229, 230, 231, 232, 233, 234, 235, 236, 237, 238, 239, 240, 241, 242, 243, 244, 245, 246, 247, 248, 249, 250, 251, 252], "AcquisitionTime": ["102124.732500", "102125.342500", "102125.952500", "102126.562500", "102127.172500", "102127.782500", "102128.392500", "102129.002500", "102129.612500", "102130.222500", "102130.832500", "102131.442500", "102132.052500", "102132.662500", "102133.272500", "102133.882500", "102134.492500", "102135.102500", "102135.712500", "102136.322500", "102136.932500", "102137.542500", "102138.152500", "102138.762500", "102139.372500", "102139.982500", "102140.592500", "102141.202500", "102141.812500", "102142.422500", "102143.032500", "102143.642500", "102144.252500", "102144.862500", "102145.472500", "102146.082500", "102146.692500", "102147.302500", "102147.912500", "102148.522500", "102149.132500", "102149.742500", "102150.352500", "102150.962500", "102151.572500", "102152.182500", "102152.792500", "102153.402500", "102154.012500", "102154.622500", "102155.232500", "102155.842500", "102156.452500", "102157.062500", "102157.672500", "102158.282500", "102158.892500", "102159.502500", "102200.112500", "102200.722500", "102201.332500", "102201.942500", "102202.552500", "102203.162500", "102203.772500", "102204.382500", "102204.992500", "102205.602500", "102206.212500", "102206.822500", "102207.432500", "102208.042500", "102208.652500", "102209.262500", "102209.872500", "102210.482500", "102211.092500", "102211.702500", "102212.312500", "102212.922500", "102213.532500", "102214.142500", "102214.752500", "102215.362500", "102215.972500", "102216.582500", "102217.192500", "102217.802500", "102218.412500", "102219.022500", "102219.632500", "102220.242500", "102220.852500", "102221.462500", "102222.072500", "102222.682500", "102223.292500", "102223.902500", "102224.512500", "102225.122500", "102225.732500", "102226.342500", "102226.952500", "102227.562500", "102228.172500", "102228.782500", "102229.392500", "102230.002500", "102230.612500", "102231.222500", "102231.832500", "102232.442500", "102233.052500", "102233.662500", "102234.272500", "102234.882500", "102235.492500", "102236.102500", "102236.712500", "102237.322500", "102237.932500", "102238.542500", "102239.152500", "102239.762500", "102240.372500", "102240.982500", "102241.592500", "102242.202500", "102242.812500", "102243.422500", "102244.032500", "102244.642500", "102245.252500", "102245.862500", "102246.472500", "102247.082500", "102247.692500", "102248.302500", "102248.912500", "102249.522500", "102250.132500", "102250.742500", "102251.352500", "102251.962500", "102252.572500", "102253.182500", "102253.792500", "102254.402500", "102255.012500", "102255.622500", "102256.232500", "102256.842500", "102257.452500", "102258.062500", "102258.672500", "102259.282500", "102259.892500", "102300.502500", "102301.112500", "102301.722500", "102302.332500", "102302.942500", "102303.552500", "102304.162500", "102304.772500", "102305.382500", "102305.992500", "102306.602500", "102307.212500", "102307.822500", "102308.432500", "102309.042500", "102309.652500", "102310.262500", "102310.872500", "102311.482500", "102312.092500", "102312.702500", "102313.312500", "102313.922500", "102314.532500", "102315.142500", "102315.752500", "102316.362500", "102316.972500", "102317.582500", "102318.192500", "102318.802500", "102319.412500", "102320.022500", "102320.632500", "102321.242500", "102321.852500", "102322.462500", "102323.072500", "102323.682500", "102324.292500", "102324.902500", "102325.512500", "102326.122500", "102326.732500", "102327.342500", "102327.952500", "102328.562500", "102329.172500", "102329.782500", "102330.392500", "102331.002500", "102331.612500", "102332.222500", "102332.832500", "102333.442500", "102334.052500", "102334.662500", "102335.272500", "102335.882500", "102336.492500", "102337.102500", "102337.712500", "102338.322500", "102338.932500", "102339.542500", "102340.152500", "102340.762500", "102341.372500", "102341.982500", "102342.592500", "102343.202500", "102343.812500", "102344.422500", "102345.032500", "102345.642500", "102346.252500", "102346.862500", "102347.472500", "102348.082500", "102348.692500", "102349.302500", "102349.912500", "102350.522500", "102351.132500", "102351.742500", "102352.352500", "102352.962500", "102353.572500", "102354.182500", "102354.792500", "102355.402500", "102356.012500", "102356.622500", "102357.232500", "102357.842500"], "ContentTime": ["102156.888000", "102156.891000", "102156.894000", "102156.905000", "102156.907000", "102156.910000", "102156.912000", "102156.914000", "102156.917000", "102156.919000", "102156.922000", "102156.924000", "102156.927000", "102156.929000", "102156.931000", "102156.934000", "102156.936000", "102156.939000", "102156.941000", "102156.943000", "102156.946000", "102156.948000", "102156.951000", "102156.953000", "102156.955000", "102156.958000", "102156.960000", "102156.962000", "102156.965000", "102156.967000", "102156.969000", "102156.972000", "102156.974000", "102156.977000", "102156.979000", "102156.981000", "102156.991000", "102156.994000", "102156.996000", "102157.000000", "102157.002000", "102157.004000", "102157.007000", "102157.009000", "102157.012000", "102157.014000", "102157.016000", "102157.019000", "102157.021000", "102157.024000", "102157.026000", "102216.883000", "102216.886000", "102216.888000", "102216.891000", "102216.893000", "102216.895000", "102216.898000", "102216.900000", "102216.902000", "102216.905000", "102216.907000", "102216.909000", "102216.912000", "102216.914000", "102216.917000", "102216.919000", "102216.921000", "102216.924000", "102216.926000", "102216.929000", "102216.931000", "102216.933000", "102216.936000", "102216.944000", "102216.946000", "102216.949000", "102216.951000", "102216.953000", "102216.956000", "102216.958000", "102216.960000", "102216.963000", "102216.965000", "102236.884000", "102236.887000", "102236.889000", "102236.892000", "102236.894000", "102236.896000", "102236.899000", "102236.901000", "102236.903000", "102236.906000", "102236.908000", "102236.910000", "102236.913000", "102236.915000", "102236.917000", "102236.920000", "102236.922000", "102236.925000", "102236.927000", "102236.929000", "102236.932000", "102236.934000", "102236.936000", "102236.939000", "102236.941000", "102236.943000", "102236.946000", "102236.948000", "102236.950000", "102236.953000", "102236.955000", "102236.958000", "102236.960000", "102256.884000", "102256.887000", "102256.889000", "102256.891000", "102256.894000", "102256.896000", "102256.898000", "102256.901000", "102256.903000", "102256.905000", "102256.908000", "102256.910000", "102256.912000", "102256.915000", "102256.917000", "102256.920000", "102256.922000", "102256.924000", "102256.927000", "102256.929000", "102256.932000", "102256.934000", "102256.936000", "102256.939000", "102256.941000", "102256.943000", "102256.946000", "102256.948000", "102256.950000", "102256.953000", "102256.955000", "102256.958000", "102256.960000", "102316.884000", "102316.887000", "102316.889000", "102316.892000", "102316.894000", "102316.896000", "102316.899000", "102316.901000", "102316.904000", "102316.906000", "102316.908000", "102316.911000", "102316.913000", "102316.915000", "102316.918000", "102316.920000", "102316.922000", "102316.925000", "102316.927000", "102316.930000", "102316.932000", "102316.935000", "102316.937000", "102316.940000", "102316.942000", "102316.945000", "102316.947000", "102316.949000", "102316.952000", "102316.954000", "102316.957000", "102316.959000", "102336.884000", "102336.887000", "102336.889000", "102336.892000", "102336.894000", "102336.896000", "102336.899000", "102336.901000", "102336.904000", "102336.906000", "102336.909000", "102336.912000", "102336.914000", "102336.916000", "102336.951000", "102336.953000", "102336.955000", "102336.958000", "102336.960000", "102336.963000", "102336.965000", "102336.968000", "102336.970000", "102336.972000", "102336.975000", "102336.977000", "102336.980000", "102336.982000", "102336.984000", "102336.987000", "102336.989000", "102336.991000", "102336.994000", "102356.883000", "102356.886000", "102356.888000", "102356.891000", "102356.893000", "102356.896000", "102356.898000", "102356.900000", "102356.903000", "102356.905000", "102356.907000", "102356.910000", "102356.912000", "102356.914000", "102356.917000", "102356.919000", "102356.922000", "102356.924000", "102356.926000", "102356.929000", "102356.931000", "102356.934000", "102356.936000", "102356.938000", "102356.941000", "102356.943000", "102356.946000", "102356.948000", "102356.950000", "102356.953000", "102356.955000", "102356.957000", "102356.960000", "102359.986000", "102359.989000", "102359.991000", "102359.993000"], "InstanceCreationTime": ["102156.888000", "102156.891000", "102156.894000", "102156.905000", "102156.907000", "102156.910000", "102156.912000", "102156.914000", "102156.917000", "102156.919000", "102156.922000", "102156.924000", "102156.927000", "102156.929000", "102156.931000", "102156.934000", "102156.936000", "102156.939000", "102156.941000", "102156.943000", "102156.946000", "102156.948000", "102156.951000", "102156.953000", "102156.955000", "102156.958000", "102156.960000", "102156.962000", "102156.965000", "102156.967000", "102156.969000", "102156.972000", "102156.974000", "102156.977000", "102156.979000", "102156.981000", "102156.991000", "102156.994000", "102156.996000", "102157.000000", "102157.002000", "102157.004000", "102157.007000", "102157.009000", "102157.012000", "102157.014000", "102157.016000", "102157.019000", "102157.021000", "102157.024000", "102157.026000", "102216.883000", "102216.886000", "102216.888000", "102216.891000", "102216.893000", "102216.895000", "102216.898000", "102216.900000", "102216.902000", "102216.905000", "102216.907000", "102216.909000", "102216.912000", "102216.914000", "102216.917000", "102216.919000", "102216.921000", "102216.924000", "102216.926000", "102216.929000", "102216.931000", "102216.933000", "102216.936000", "102216.944000", "102216.946000", "102216.949000", "102216.951000", "102216.953000", "102216.956000", "102216.958000", "102216.960000", "102216.963000", "102216.965000", "102236.884000", "102236.887000", "102236.889000", "102236.892000", "102236.894000", "102236.896000", "102236.899000", "102236.901000", "102236.903000", "102236.906000", "102236.908000", "102236.910000", "102236.913000", "102236.915000", "102236.917000", "102236.920000", "102236.922000", "102236.925000", "102236.927000", "102236.929000", "102236.932000", "102236.934000", "102236.936000", "102236.939000", "102236.941000", "102236.943000", "102236.946000", "102236.948000", "102236.950000", "102236.953000", "102236.955000", "102236.958000", "102236.960000", "102256.884000", "102256.887000", "102256.889000", "102256.891000", "102256.894000", "102256.896000", "102256.898000", "102256.901000", "102256.903000", "102256.905000", "102256.908000", "102256.910000", "102256.912000", "102256.915000", "102256.917000", "102256.920000", "102256.922000", "102256.924000", "102256.927000", "102256.929000", "102256.932000", "102256.934000", "102256.936000", "102256.939000", "102256.941000", "102256.943000", "102256.946000", "102256.948000", "102256.950000", "102256.953000", "102256.955000", "102256.958000", "102256.960000", "102316.884000", "102316.887000", "102316.889000", "102316.892000", "102316.894000", "102316.896000", "102316.899000", "102316.901000", "102316.904000", "102316.906000", "102316.908000", "102316.911000", "102316.913000", "102316.915000", "102316.918000", "102316.920000", "102316.922000", "102316.925000", "102316.927000", "102316.930000", "102316.932000", "102316.935000", "102316.937000", "102316.940000", "102316.942000", "102316.945000", "102316.947000", "102316.949000", "102316.952000", "102316.954000", "102316.957000", "102316.959000", "102336.884000", "102336.887000", "102336.889000", "102336.892000", "102336.894000", "102336.896000", "102336.899000", "102336.901000", "102336.904000", "102336.906000", "102336.909000", "102336.912000", "102336.914000", "102336.916000", "102336.951000", "102336.953000", "102336.955000", "102336.958000", "102336.960000", "102336.963000", "102336.965000", "102336.968000", "102336.970000", "102336.972000", "102336.975000", "102336.977000", "102336.980000", "102336.982000", "102336.984000", "102336.987000", "102336.989000", "102336.991000", "102336.994000", "102356.883000", "102356.886000", "102356.888000", "102356.891000", "102356.893000", "102356.896000", "102356.898000", "102356.900000", "102356.903000", "102356.905000", "102356.907000", "102356.910000", "102356.912000", "102356.914000", "102356.917000", "102356.919000", "102356.922000", "102356.924000", "102356.926000", "102356.929000", "102356.931000", "102356.934000", "102356.936000", "102356.938000", "102356.941000", "102356.943000", "102356.946000", "102356.948000", "102356.950000", "102356.953000", "102356.955000", "102356.957000", "102356.960000", "102359.986000", "102359.989000", "102359.991000", "102359.993000"], "InstanceNumber": [1, 2, 3, 4, 5, 6, 7, 8, 9, 10, 11, 12, 13, 14, 15, 16, 17, 18, 19, 20, 21, 22, 23, 24, 25, 26, 27, 28, 29, 30, 31, 32, 33, 34, 35, 36, 37, 38, 39, 40, 41, 42, 43, 44, 45, 46, 47, 48, 49, 50, 51, 52, 53, 54, 55, 56, 57, 58, 59, 60, 61, 62, 63, 64, 65, 66, 67, 68, 69, 70, 71, 72, 73, 74, 75, 76, 77, 78, 79, 80, 81, 82, 83, 84, 85, 86, 87, 88, 89, 90, 91, 92, 93, 94, 95, 96, 97, 98, 99, 100, 101, 102, 103, 104, 105, 106, 107, 108, 109, 110, 111, 112, 113, 114, 115, 116, 117, 118, 119, 120, 121, 122, 123, 124, 125, 126, 127, 128, 129, 130, 131, 132, 133, 134, 135, 136, 137, 138, 139, 140, 141, 142, 143, 144, 145, 146, 147, 148, 149, 150, 151, 152, 153, 154, 155, 156, 157, 158, 159, 160, 161, 162, 163, 164, 165, 166, 167, 168, 169, 170, 171, 172, 173, 174, 175, 176, 177, 178, 179, 180, 181, 182, 183, 184, 185, 186, 187, 188, 189, 190, 191, 192, 193, 194, 195, 196, 197, 198, 199, 200, 201, 202, 203, 204, 205, 206, 207, 208, 209, 210, 211, 212, 213, 214, 215, 216, 217, 218, 219, 220, 221, 222, 223, 224, 225, 226, 227, 228, 229, 230, 231, 232, 233, 234, 235, 236, 237, 238, 239, 240, 241, 242, 243, 244, 245, 246, 247, 248, 249, 250, 251, 252], "LargestImagePixelValue": [459, 460, 416, 403, 454, 426, 440, 432, 421, 432, 405, 437, 414, 422, 510, 453, 463, 434, 434, 441, 443, 428, 456, 418, 404, 442, 404, 433, 424, 420, 411, 413, 403, 438, 422, 442, 414, 445, 438, 429, 417, 401, 406, 410, 405, 414, 413, 418, 432, 403, 412, 433, 404, 431, 440, 441, 426, 412, 408, 409, 407, 430, 410, 427, 422, 434, 412, 402, 426, 423, 412, 430, 427, 437, 420, 420, 447, 412, 413, 438, 427, 422, 418, 418, 413, 425, 407, 446, 448, 442, 417, 417, 443, 422, 416, 412, 414, 431, 413, 415, 440, 432, 431, 441, 415, 426, 444, 414, 415, 436, 438, 410, 433, 437, 439, 429, 428, 463, 429, 432, 412, 425, 414, 409, 413, 421, 420, 420, 419, 408, 447, 405, 447, 459, 461, 399, 433, 403, 400, 400, 404, 403, 433, 491, 464, 418, 417, 415, 427, 415, 414, 425, 424, 428, 413, 436, 433, 429, 441, 445, 451, 454, 444, 458, 437, 435, 430, 435, 435, 424, 435, 434, 423, 429, 439, 464, 437, 454, 434, 416, 424, 407, 424, 427, 434, 422, 412, 420, 414, 414, 415, 407, 412, 411, 439, 417, 452, 411, 426, 428, 417, 415, 417, 402, 404, 431, 399, 409, 429, 416, 414, 441, 416, 402, 421, 408, 400, 399, 402, 405, 401, 408, 411, 405, 412, 406, 414, 416, 421, 408, 420, 431, 411, 428, 427, 421, 417, 425, 421, 422, 428, 417, 446, 437, 426, 447, 435, 416, 431, 429, 414, 418], "WindowCenter": [282.0, 277.0, 277.0, 275.0, 277.0, 276.0, 277.0, 277.0, 276.0, 275.0, 274.0, 275.0, 275.0, 276.0, 278.0, 276.0, 275.0, 275.0, 275.0, 275.0, 276.0, 275.0, 274.0, 275.0, 275.0, 276.0, 274.0, 275.0, 275.0, 276.0, 275.0, 276.0, 274.0, 276.0, 275.0, 276.0, 275.0, 276.0, 276.0, 276.0, 276.0, 275.0, 275.0, 275.0, 276.0, 276.0, 275.0, 277.0, 275.0, 276.0, 275.0, 277.0, 275.0, 277.0, 276.0, 276.0, 275.0, 277.0, 276.0, 275.0, 276.0, 276.0, 275.0, 276.0, 276.0, 276.0, 275.0, 277.0, 276.0, 277.0, 275.0, 277.0, 276.0, 277.0, 276.0, 275.0, 276.0, 276.0, 276.0, 276.0, 275.0, 276.0, 275.0, 276.0, 276.0, 275.0, 276.0, 276.0, 278.0, 277.0, 276.0, 276.0, 275.0, 276.0, 275.0, 276.0, 275.0, 275.0, 276.0, 275.0, 275.0, 276.0, 277.0, 277.0, 275.0, 277.0, 276.0, 276.0, 276.0, 277.0, 277.0, 276.0, 277.0, 277.0, 277.0, 276.0, 276.0, 277.0, 277.0, 277.0, 276.0, 275.0, 276.0, 276.0, 276.0, 276.0, 276.0, 276.0, 276.0, 275.0, 276.0, 275.0, 277.0, 277.0, 277.0, 276.0, 276.0, 276.0, 276.0, 276.0, 276.0, 275.0, 277.0, 281.0, 276.0, 275.0, 275.0, 275.0, 275.0, 276.0, 276.0, 275.0, 276.0, 276.0, 276.0, 277.0, 276.0, 276.0, 275.0, 275.0, 276.0, 276.0, 277.0, 276.0, 277.0, 275.0, 277.0, 276.0, 276.0, 275.0, 276.0, 276.0, 277.0, 276.0, 276.0, 278.0, 276.0, 278.0, 277.0, 278.0, 277.0, 277.0, 277.0, 277.0, 277.0, 275.0, 275.0, 275.0, 275.0, 275.0, 275.0, 274.0, 275.0, 274.0, 277.0, 274.0, 277.0, 276.0, 275.0, 275.0, 275.0, 275.0, 275.0, 275.0, 275.0, 277.0, 275.0, 275.0, 276.0, 275.0, 275.0, 277.0, 275.0, 275.0, 276.0, 276.0, 276.0, 276.0, 276.0, 276.0, 276.0, 275.0, 276.0, 276.0, 276.0, 276.0, 276.0, 276.0, 277.0, 276.0, 276.0, 278.0, 276.0, 276.0, 277.0, 276.0, 276.0, 277.0, 277.0, 276.0, 277.0, 276.0, 276.0, 277.0, 276.0, 276.0, 277.0, 276.0, 276.0, 276.0, 276.0, 276.0], "WindowWidth": [619.0, 610.0, 609.0, 605.0, 609.0, 607.0, 608.0, 608.0, 606.0, 605.0, 602.0, 605.0, 605.0, 606.0, 610.0, 607.0, 605.0, 605.0, 605.0, 605.0, 606.0, 605.0, 603.0, 605.0, 605.0, 606.0, 603.0, 605.0, 605.0, 606.0, 605.0, 606.0, 604.0, 608.0, 605.0, 608.0, 605.0, 607.0, 606.0, 606.0, 607.0, 606.0, 605.0, 605.0, 607.0, 607.0, 605.0, 609.0, 605.0, 607.0, 605.0, 608.0, 606.0, 608.0, 607.0, 607.0, 606.0, 608.0, 607.0, 605.0, 607.0, 606.0, 605.0, 606.0, 607.0, 607.0, 606.0, 608.0, 607.0, 608.0, 606.0, 608.0, 608.0, 608.0, 607.0, 606.0, 607.0, 607.0, 607.0, 608.0, 606.0, 607.0, 606.0, 607.0, 607.0, 606.0, 606.0, 607.0, 611.0, 608.0, 607.0, 606.0, 606.0, 607.0, 606.0, 606.0, 606.0, 606.0, 607.0, 606.0, 605.0, 606.0, 608.0, 608.0, 606.0, 609.0, 607.0, 607.0, 607.0, 608.0, 608.0, 607.0, 608.0, 608.0, 608.0, 607.0, 606.0, 609.0, 608.0, 608.0, 607.0, 606.0, 607.0, 607.0, 607.0, 606.0, 607.0, 607.0, 607.0, 606.0, 607.0, 606.0, 609.0, 609.0, 608.0, 607.0, 608.0, 608.0, 607.0, 606.0, 606.0, 606.0, 608.0, 617.0, 607.0, 604.0, 605.0, 604.0, 606.0, 607.0, 607.0, 606.0, 607.0, 606.0, 607.0, 608.0, 607.0, 607.0, 605.0, 605.0, 607.0, 606.0, 607.0, 606.0, 608.0, 605.0, 608.0, 606.0, 606.0, 606.0, 607.0, 606.0, 608.0, 607.0, 607.0, 611.0, 606.0, 610.0, 608.0, 611.0, 609.0, 609.0, 608.0, 608.0, 609.0, 605.0, 606.0, 604.0, 605.0, 605.0, 605.0, 603.0, 604.0, 603.0, 608.0, 604.0, 608.0, 607.0, 604.0, 606.0, 605.0, 606.0, 606.0, 606.0, 604.0, 608.0, 606.0, 604.0, 607.0, 605.0, 605.0, 608.0, 606.0, 606.0, 607.0, 608.0, 606.0, 606.0, 606.0, 606.0, 606.0, 606.0, 607.0, 607.0, 606.0, 607.0, 607.0, 606.0, 609.0, 606.0, 607.0, 609.0, 607.0, 607.0, 609.0, 608.0, 607.0, 609.0, 608.0, 607.0, 609.0, 607.0, 607.0, 609.0, 607.0, 607.0, 608.0, 606.0, 607.0, 607.0, 607.0, 608.0]}, "slices": {}}, "EventTimestamp": "10-24-24"}