{"AcquisitionMatrixPE": 64, "AcquisitionNumber": 1, "AcquisitionTime": "10:34:17.705000", "BandwidthPerPixelPhaseEncode": 28.935, "BaseResolution": 64, "BodyPartExamined": "BRAIN", "CoilCombinationMethod": "Sum of Squares", "ConsistencyInfo": "N4_VE11E_LATEST_20181129", "ConversionSoftware": "dcm2niix", "ConversionSoftwareVersion": "v1.0.20230411", "DerivedVendorReportedEchoSpacing": 0.000540003, "DeviceSerialNumber": "166182", "DwellTime": 3.4e-06, "EchoTime": 0.032, "EchoTrainLength": 64, "EffectiveEchoSpacing": 0.000540003, "FlipAngle": 40, "HeudiconvVersion": "0.13.1", "ImageOrientationPatientDICOM": [0.993059, -0.117353, -0.00782042, 0.113847, 0.975824, -0.186567], "ImageOrientationText": "Tra>Cor(-10.6)>Sag(-1.7)", "ImageType": ["ORIGINAL", "PRIMARY", "M", "ND", "NORM", "MOSAIC"], "ImagingFrequency": 123.256272, "InPlanePhaseEncodingDirectionDICOM": "COL", "InstitutionAddress": "PEARSE STREET .,City,District,IE,D2", "InstitutionName": "TCIN", "InstitutionalDepartmentName": "MRI", "MRAcquisitionType": "2D", "MagneticFieldStrength": 3, "Manufacturer": "Siemens", "ManufacturersModelName": "Prisma", "Modality": "MR", "MultibandAccelerationFactor": 4, "NonlinearGradientCorrection": false, "PartialFourier": 1, "PatientPosition": "HFS", "PercentPhaseFOV": 100, "PercentSampling": 100, "PhaseEncodingDirection": "j-", "PhaseEncodingSteps": 64, "PhaseResolution": 1, "PixelBandwidth": 2300, "ProcedureStepDescription": "Rhodri^Head BOLD", "ProtocolName": "cmrr_mbep2d_Pictures_AP_RDS", "PulseSequenceDetails": "%SiemensSeq%\\ep2d_bold", "ReceiveCoilActiveElements": "HC2,4,6,7", "ReceiveCoilName": "HeadNeck_64", "ReconMatrixPE": 64, "RefLinesPE": 12, "RepetitionTime": 0.61, "SAR": 0.331877, "ScanOptions": "FS", "ScanningSequence": "EP", "SequenceName": "*epfid2d1_64", "SequenceVariant": "SK", "SeriesDescription": "cmrr_mbep2d_Pictures_AP_RDS", "SeriesNumber": 12, "ShimSetting": [-3447, -7451, 3904, 519, -300, 174, 255, -148], "SliceThickness": 3, "SliceTiming": [0.2625, 0, 0.3275, 0.0675, 0.395, 0.1325, 0.46, 0.1975, 0.525, 0.2625, 0, 0.3275, 0.0675, 0.395, 0.1325, 0.46, 0.1975, 0.525, 0.2625, 0, 0.3275, 0.0675, 0.395, 0.1325, 0.46, 0.1975, 0.525, 0.2625, 0, 0.3275, 0.0675, 0.395, 0.1325, 0.46, 0.1975, 0.525], "SoftwareVersions": "syngo MR E11", "SpacingBetweenSlices": 3.3, "StationName": "AWP166182", "TaskName": "pictures", "TotalReadoutTime": 0.0340202, "TxRefAmp": 278.175, "dcmmeta_affine": [[-2.9791784286499023, 0.34154167771339417, -0.09743441641330719, 85.57215881347656], [0.35205984115600586, 2.9274706840515137, -0.6084595322608948, -97.00062561035156], [-0.023461245000362396, 0.559700608253479, 3.241956949234009, -90.99366760253906], [0.0, 0.0, 0.0, 1.0]], "dcmmeta_reorient_transform": [[0.0, -1.0, 0.0, 63.0], [1.0, 0.0, 0.0, 0.0], [0.0, 0.0, 1.0, 0.0], [0.0, 0.0, 0.0, 1.0]], "dcmmeta_shape": [64, 64, 36, 510], "dcmmeta_slice_dim": 2, "dcmmeta_version": 0.6, "global": {"const": {"AcquisitionMatrix": [64, 0, 0, 64], "AngioFlag": "N", "BitsAllocated": 16, "BitsStored": 12, "BodyPartExamined": "BRAIN", "Columns": 384, "EchoNumbers": 1, "EchoTime": 32.0, "EchoTrainLength": 64, "FlipAngle": 40.0, "HighBit": 11, "ImageOrientationPatient": [0.99305943842913, -0.1173532822609, -0.0078204149133, 0.11384723023424, 0.97582355363132, -0.1865668790175], "ImagePositionPatient": [-638.40448657723, -499.49575586793, 37.573374028767], "ImageType": ["ORIGINAL", "PRIMARY", "M", "ND", "NORM", "MOSAIC"], "ImagedNucleus": "1H", "ImagingFrequency": 123.256272, "InPlanePhaseEncodingDirection": "COL", "MRAcquisitionType": "2D", "MagneticFieldStrength": 3.0, "Manufacturer": "SIEMENS", "ManufacturerModelName": "Prisma", "Modality": "MR", "NumberOfAverages": 1.0, "NumberOfPhaseEncodingSteps": 64, "PercentPhaseFieldOfView": 100.0, "PercentSampling": 100.0, "PerformedProcedureStepStartTime": "100714.558000", "PhotometricInterpretation": "MONOCHROME2", "PixelBandwidth": 2300.0, "PixelRepresentation": 0, "PixelSpacing": [3.0, 3.0], "ProtocolName": "cmrr_mbep2d_Pictures_AP_RDS", "RepetitionTime": 610.0, "Rows": 384, "SAR": 0.33187672853915, "SamplesPerPixel": 1, "ScanOptions": "FS", "ScanningSequence": "EP", "SequenceName": "*epfid2d1_64", "SequenceVariant": "SK", "SeriesDescription": "cmrr_mbep2d_Pictures_AP_RDS", "SeriesNumber": 12, "SeriesTime": "103430.607000", "SliceLocation": -74.034622494251, "SliceThickness": 3.0, "SmallestImagePixelValue": 0, "SoftwareVersions": "syngo MR E11", "SpacingBetweenSlices": 3.3000001239947, "SpecificCharacterSet": "ISO_IR 100", "StudyID": "1", "StudyTime": "100714.380000", "TransmitCoilName": "Body", "VariableFlipAngleFlag": "N", "WindowCenterWidthExplanation": "Algo1"}, "slices": {}}, "time": {"samples": {"AcquisitionNumber": [1, 2, 3, 4, 5, 6, 7, 8, 9, 10, 11, 12, 13, 14, 15, 16, 17, 18, 19, 20, 21, 22, 23, 24, 25, 26, 27, 28, 29, 30, 31, 32, 33, 34, 35, 36, 37, 38, 39, 40, 41, 42, 43, 44, 45, 46, 47, 48, 49, 50, 51, 52, 53, 54, 55, 56, 57, 58, 59, 60, 61, 62, 63, 64, 65, 66, 67, 68, 69, 70, 71, 72, 73, 74, 75, 76, 77, 78, 79, 80, 81, 82, 83, 84, 85, 86, 87, 88, 89, 90, 91, 92, 93, 94, 95, 96, 97, 98, 99, 100, 101, 102, 103, 104, 105, 106, 107, 108, 109, 110, 111, 112, 113, 114, 115, 116, 117, 118, 119, 120, 121, 122, 123, 124, 125, 126, 127, 128, 129, 130, 131, 132, 133, 134, 135, 136, 137, 138, 139, 140, 141, 142, 143, 144, 145, 146, 147, 148, 149, 150, 151, 152, 153, 154, 155, 156, 157, 158, 159, 160, 161, 162, 163, 164, 165, 166, 167, 168, 169, 170, 171, 172, 173, 174, 175, 176, 177, 178, 179, 180, 181, 182, 183, 184, 185, 186, 187, 188, 189, 190, 191, 192, 193, 194, 195, 196, 197, 198, 199, 200, 201, 202, 203, 204, 205, 206, 207, 208, 209, 210, 211, 212, 213, 214, 215, 216, 217, 218, 219, 220, 221, 222, 223, 224, 225, 226, 227, 228, 229, 230, 231, 232, 233, 234, 235, 236, 237, 238, 239, 240, 241, 242, 243, 244, 245, 246, 247, 248, 249, 250, 251, 252, 253, 254, 255, 256, 257, 258, 259, 260, 261, 262, 263, 264, 265, 266, 267, 268, 269, 270, 271, 272, 273, 274, 275, 276, 277, 278, 279, 280, 281, 282, 283, 284, 285, 286, 287, 288, 289, 290, 291, 292, 293, 294, 295, 296, 297, 298, 299, 300, 301, 302, 303, 304, 305, 306, 307, 308, 309, 310, 311, 312, 313, 314, 315, 316, 317, 318, 319, 320, 321, 322, 323, 324, 325, 326, 327, 328, 329, 330, 331, 332, 333, 334, 335, 336, 337, 338, 339, 340, 341, 342, 343, 344, 345, 346, 347, 348, 349, 350, 351, 352, 353, 354, 355, 356, 357, 358, 359, 360, 361, 362, 363, 364, 365, 366, 367, 368, 369, 370, 371, 372, 373, 374, 375, 376, 377, 378, 379, 380, 381, 382, 383, 384, 385, 386, 387, 388, 389, 390, 391, 392, 393, 394, 395, 396, 397, 398, 399, 400, 401, 402, 403, 404, 405, 406, 407, 408, 409, 410, 411, 412, 413, 414, 415, 416, 417, 418, 419, 420, 421, 422, 423, 424, 425, 426, 427, 428, 429, 430, 431, 432, 433, 434, 435, 436, 437, 438, 439, 440, 441, 442, 443, 444, 445, 446, 447, 448, 449, 450, 451, 452, 453, 454, 455, 456, 457, 458, 459, 460, 461, 462, 463, 464, 465, 466, 467, 468, 469, 470, 471, 472, 473, 474, 475, 476, 477, 478, 479, 480, 481, 482, 483, 484, 485, 486, 487, 488, 489, 490, 491, 492, 493, 494, 495, 496, 497, 498, 499, 500, 501, 502, 503, 504, 505, 506, 507, 508, 509, 510], "AcquisitionTime": ["103417.705000", "103418.315000", "103418.925000", "103419.535000", "103420.145000", "103420.755000", "103421.365000", "103421.975000", "103422.585000", "103423.195000", "103423.805000", "103424.415000", "103425.025000", "103425.635000", "103426.245000", "103426.855000", "103427.465000", "103428.075000", "103428.685000", "103429.295000", "103429.905000", "103430.515000", "103431.125000", "103431.735000", "103432.345000", "103432.955000", "103433.565000", "103434.175000", "103434.785000", "103435.395000", "103436.005000", "103436.615000", "103437.225000", "103437.835000", "103438.445000", "103439.055000", "103439.665000", "103440.275000", "103440.885000", "103441.495000", "103442.105000", "103442.715000", "103443.325000", "103443.935000", "103444.545000", "103445.155000", "103445.765000", "103446.375000", "103446.985000", "103447.595000", "103448.205000", "103448.815000", "103449.425000", "103450.035000", "103450.645000", "103451.255000", "103451.865000", "103452.475000", "103453.085000", "103453.695000", "103454.305000", "103454.915000", "103455.525000", "103456.135000", "103456.745000", "103457.355000", "103457.965000", "103458.575000", "103459.185000", "103459.795000", "103500.405000", "103501.015000", "103501.625000", "103502.235000", "103502.845000", "103503.455000", "103504.065000", "103504.675000", "103505.285000", "103505.895000", "103506.505000", "103507.115000", "103507.725000", "103508.335000", "103508.945000", "103509.555000", "103510.165000", "103510.775000", "103511.385000", "103511.995000", "103512.605000", "103513.215000", "103513.825000", "103514.435000", "103515.045000", "103515.655000", "103516.265000", "103516.875000", "103517.485000", "103518.095000", "103518.705000", "103519.315000", "103519.925000", "103520.535000", "103521.145000", "103521.755000", "103522.365000", "103522.975000", "103523.585000", "103524.195000", "103524.805000", "103525.415000", "103526.025000", "103526.635000", "103527.245000", "103527.855000", "103528.465000", "103529.075000", "103529.685000", "103530.295000", "103530.905000", "103531.515000", "103532.125000", "103532.735000", "103533.345000", "103533.955000", "103534.565000", "103535.175000", "103535.785000", "103536.395000", "103537.005000", "103537.615000", "103538.225000", "103538.835000", "103539.445000", "103540.055000", "103540.665000", "103541.275000", "103541.885000", "103542.495000", "103543.105000", "103543.715000", "103544.325000", "103544.935000", "103545.545000", "103546.155000", "103546.765000", "103547.375000", "103547.985000", "103548.595000", "103549.205000", "103549.815000", "103550.425000", "103551.035000", "103551.645000", "103552.255000", "103552.865000", "103553.475000", "103554.085000", "103554.695000", "103555.305000", "103555.915000", "103556.525000", "103557.135000", "103557.745000", "103558.355000", "103558.965000", "103559.575000", "103600.185000", "103600.795000", "103601.405000", "103602.015000", "103602.625000", "103603.235000", "103603.845000", "103604.455000", "103605.065000", "103605.675000", "103606.285000", "103606.895000", "103607.505000", "103608.115000", "103608.725000", "103609.335000", "103609.945000", "103610.555000", "103611.165000", "103611.775000", "103612.385000", "103612.995000", "103613.605000", "103614.215000", "103614.825000", "103615.435000", "103616.045000", "103616.655000", "103617.265000", "103617.875000", "103618.485000", "103619.095000", "103619.705000", "103620.315000", "103620.925000", "103621.535000", "103622.145000", "103622.755000", "103623.365000", "103623.975000", "103624.585000", "103625.195000", "103625.805000", "103626.415000", "103627.025000", "103627.635000", "103628.245000", "103628.855000", "103629.465000", "103630.075000", "103630.685000", "103631.295000", "103631.905000", "103632.515000", "103633.125000", "103633.735000", "103634.345000", "103634.955000", "103635.565000", "103636.175000", "103636.785000", "103637.395000", "103638.005000", "103638.615000", "103639.225000", "103639.835000", "103640.445000", "103641.055000", "103641.665000", "103642.275000", "103642.885000", "103643.495000", "103644.105000", "103644.715000", "103645.325000", "103645.935000", "103646.545000", "103647.155000", "103647.765000", "103648.375000", "103648.985000", "103649.595000", "103650.205000", "103650.815000", "103651.425000", "103652.035000", "103652.645000", "103653.255000", "103653.865000", "103654.475000", "103655.085000", "103655.695000", "103656.305000", "103656.915000", "103657.525000", "103658.135000", "103658.745000", "103659.355000", "103659.965000", "103700.575000", "103701.185000", "103701.795000", "103702.405000", "103703.015000", "103703.625000", "103704.235000", "103704.845000", "103705.455000", "103706.065000", "103706.675000", "103707.285000", "103707.895000", "103708.505000", "103709.115000", "103709.725000", "103710.335000", "103710.945000", "103711.555000", "103712.165000", "103712.775000", "103713.385000", "103713.995000", "103714.605000", "103715.215000", "103715.825000", "103716.435000", "103717.045000", "103717.655000", "103718.265000", "103718.875000", "103719.485000", "103720.095000", "103720.705000", "103721.315000", "103721.925000", "103722.535000", "103723.145000", "103723.755000", "103724.365000", "103724.975000", "103725.585000", "103726.195000", "103726.805000", "103727.415000", "103728.025000", "103728.635000", "103729.245000", "103729.855000", "103730.465000", "103731.075000", "103731.685000", "103732.295000", "103732.905000", "103733.515000", "103734.125000", "103734.735000", "103735.345000", "103735.955000", "103736.565000", "103737.175000", "103737.785000", "103738.395000", "103739.005000", "103739.615000", "103740.225000", "103740.835000", "103741.445000", "103742.055000", "103742.665000", "103743.275000", "103743.885000", "103744.495000", "103745.105000", "103745.715000", "103746.325000", "103746.935000", "103747.545000", "103748.155000", "103748.765000", "103749.375000", "103749.985000", "103750.595000", "103751.205000", "103751.815000", "103752.425000", "103753.035000", "103753.645000", "103754.255000", "103754.865000", "103755.475000", "103756.085000", "103756.695000", "103757.305000", "103757.915000", "103758.525000", "103759.135000", "103759.745000", "103800.355000", "103800.965000", "103801.575000", "103802.185000", "103802.795000", "103803.405000", "103804.015000", "103804.625000", "103805.235000", "103805.845000", "103806.455000", "103807.065000", "103807.675000", "103808.285000", "103808.895000", "103809.505000", "103810.115000", "103810.725000", "103811.335000", "103811.945000", "103812.555000", "103813.165000", "103813.775000", "103814.385000", "103814.995000", "103815.605000", "103816.215000", "103816.825000", "103817.435000", "103818.045000", "103818.655000", "103819.265000", "103819.875000", "103820.485000", "103821.095000", "103821.705000", "103822.315000", "103822.925000", "103823.535000", "103824.145000", "103824.755000", "103825.365000", "103825.975000", "103826.585000", "103827.195000", "103827.805000", "103828.415000", "103829.025000", "103829.635000", "103830.245000", "103830.855000", "103831.465000", "103832.075000", "103832.685000", "103833.295000", "103833.905000", "103834.515000", "103835.125000", "103835.735000", "103836.345000", "103836.955000", "103837.565000", "103838.175000", "103838.785000", "103839.395000", "103840.005000", "103840.615000", "103841.225000", "103841.835000", "103842.445000", "103843.055000", "103843.665000", "103844.275000", "103844.885000", "103845.495000", "103846.105000", "103846.715000", "103847.325000", "103847.935000", "103848.545000", "103849.155000", "103849.765000", "103850.375000", "103850.985000", "103851.595000", "103852.205000", "103852.815000", "103853.425000", "103854.035000", "103854.645000", "103855.255000", "103855.865000", "103856.475000", "103857.085000", "103857.695000", "103858.305000", "103858.915000", "103859.525000", "103900.135000", "103900.745000", "103901.355000", "103901.965000", "103902.575000", "103903.185000", "103903.795000", "103904.405000", "103905.015000", "103905.625000", "103906.235000", "103906.845000", "103907.455000", "103908.065000", "103908.675000", "103909.285000", "103909.895000", "103910.505000", "103911.115000", "103911.725000", "103912.335000", "103912.945000", "103913.555000", "103914.165000", "103914.775000", "103915.385000", "103915.995000", "103916.605000", "103917.215000", "103917.825000", "103918.435000", "103919.045000", "103919.655000", "103920.265000", "103920.875000", "103921.485000", "103922.095000", "103922.705000", "103923.315000", "103923.925000", "103924.535000", "103925.145000", "103925.755000", "103926.365000", "103926.975000", "103927.585000", "103928.195000"], "ContentTime": ["103430.610000", "103430.614000", "103430.616000", "103430.618000", "103430.621000", "103430.623000", "103430.632000", "103430.634000", "103430.640000", "103430.643000", "103430.659000", "103430.661000", "103430.664000", "103430.666000", "103430.668000", "103430.671000", "103430.673000", "103430.675000", "103430.678000", "103430.713000", "103450.606000", "103450.609000", "103450.611000", "103450.616000", "103450.619000", "103450.621000", "103450.623000", "103450.626000", "103450.628000", "103450.630000", "103450.633000", "103450.635000", "103450.637000", "103450.640000", "103450.642000", "103450.644000", "103450.647000", "103450.649000", "103450.651000", "103450.654000", "103450.656000", "103450.659000", "103450.661000", "103450.663000", "103450.666000", "103450.668000", "103450.670000", "103450.673000", "103450.675000", "103450.678000", "103450.680000", "103450.682000", "103450.685000", "103510.606000", "103510.609000", "103510.611000", "103510.616000", "103510.619000", "103510.621000", "103510.624000", "103510.626000", "103510.628000", "103510.631000", "103510.633000", "103510.635000", "103510.638000", "103510.640000", "103510.642000", "103510.645000", "103510.647000", "103510.657000", "103510.659000", "103510.662000", "103510.664000", "103510.666000", "103510.669000", "103510.671000", "103510.673000", "103510.676000", "103510.678000", "103510.681000", "103510.683000", "103510.685000", "103510.688000", "103510.690000", "103510.692000", "103530.606000", "103530.609000", "103530.611000", "103530.614000", "103530.618000", "103530.621000", "103530.623000", "103530.625000", "103530.628000", "103530.630000", "103530.632000", "103530.635000", "103530.637000", "103530.640000", "103530.642000", "103530.645000", "103530.647000", "103530.649000", "103530.652000", "103530.654000", "103530.656000", "103530.659000", "103530.661000", "103530.664000", "103530.666000", "103530.668000", "103530.671000", "103530.673000", "103530.675000", "103530.678000", "103530.680000", "103530.683000", "103530.685000", "103550.606000", "103550.609000", "103550.611000", "103550.614000", "103550.616000", "103550.618000", "103550.621000", "103550.623000", "103550.626000", "103550.628000", "103550.630000", "103550.633000", "103550.635000", "103550.637000", "103550.640000", "103550.642000", "103550.644000", "103550.647000", "103550.649000", "103550.652000", "103550.654000", "103550.656000", "103550.659000", "103550.661000", "103550.663000", "103550.666000", "103550.668000", "103550.671000", "103550.673000", "103550.675000", "103550.678000", "103550.680000", "103550.683000", "103610.606000", "103610.609000", "103610.611000", "103610.613000", "103610.616000", "103610.619000", "103610.621000", "103610.623000", "103610.626000", "103610.628000", "103610.631000", "103610.633000", "103610.636000", "103610.638000", "103610.641000", "103610.643000", "103610.646000", "103610.648000", "103610.651000", "103610.653000", "103610.655000", "103610.658000", "103610.660000", "103610.663000", "103610.665000", "103610.667000", "103610.670000", "103610.672000", "103610.675000", "103610.677000", "103610.679000", "103610.682000", "103630.606000", "103630.609000", "103630.611000", "103630.614000", "103630.616000", "103630.618000", "103630.621000", "103630.623000", "103630.625000", "103630.628000", "103630.630000", "103630.633000", "103630.635000", "103630.638000", "103630.640000", "103630.642000", "103630.645000", "103630.647000", "103630.650000", "103630.652000", "103630.655000", "103630.658000", "103630.660000", "103630.663000", "103630.665000", "103630.667000", "103630.670000", "103630.672000", "103630.674000", "103630.677000", "103630.679000", "103630.681000", "103630.684000", "103650.606000", "103650.609000", "103650.611000", "103650.614000", "103650.616000", "103650.619000", "103650.621000", "103650.624000", "103650.626000", "103650.628000", "103650.631000", "103650.633000", "103650.635000", "103650.638000", "103650.640000", "103650.643000", "103650.645000", "103650.648000", "103650.650000", "103650.653000", "103650.655000", "103650.657000", "103650.660000", "103650.663000", "103650.665000", "103650.668000", "103650.670000", "103650.673000", "103650.675000", "103650.677000", "103650.680000", "103650.682000", "103650.685000", "103710.606000", "103710.609000", "103710.611000", "103710.614000", "103710.616000", "103710.619000", "103710.621000", "103710.623000", "103710.626000", "103710.628000", "103710.631000", "103710.633000", "103710.635000", "103710.638000", "103710.640000", "103710.642000", "103710.645000", "103710.647000", "103710.650000", "103710.652000", "103710.654000", "103710.657000", "103710.659000", "103710.661000", "103710.664000", "103710.666000", "103710.669000", "103710.671000", "103710.673000", "103710.676000", "103710.678000", "103710.680000", "103710.683000", "103730.606000", "103730.609000", "103730.611000", "103730.614000", "103730.616000", "103730.618000", "103730.621000", "103730.623000", "103730.626000", "103730.628000", "103730.630000", "103730.633000", "103730.635000", "103730.638000", "103730.640000", "103730.642000", "103730.645000", "103730.647000", "103730.649000", "103730.652000", "103730.654000", "103730.657000", "103730.659000", "103730.661000", "103730.664000", "103730.666000", "103730.669000", "103730.671000", "103730.673000", "103730.676000", "103730.678000", "103730.691000", "103730.694000", "103750.606000", "103750.609000", "103750.611000", "103750.614000", "103750.616000", "103750.618000", "103750.621000", "103750.623000", "103750.626000", "103750.628000", "103750.630000", "103750.633000", "103750.635000", "103750.638000", "103750.640000", "103750.642000", "103750.645000", "103750.647000", "103750.649000", "103750.652000", "103750.654000", "103750.657000", "103750.659000", "103750.661000", "103750.664000", "103750.666000", "103750.668000", "103750.671000", "103750.673000", "103750.676000", "103750.678000", "103750.680000", "103810.606000", "103810.609000", "103810.611000", "103810.613000", "103810.616000", "103810.618000", "103810.621000", "103810.623000", "103810.625000", "103810.628000", "103810.630000", "103810.632000", "103810.635000", "103810.637000", "103810.640000", "103810.642000", "103810.645000", "103810.647000", "103810.649000", "103810.652000", "103810.654000", "103810.657000", "103810.659000", "103810.668000", "103810.670000", "103810.672000", "103810.675000", "103810.677000", "103810.680000", "103810.682000", "103810.684000", "103810.687000", "103810.689000", "103830.606000", "103830.609000", "103830.611000", "103830.614000", "103830.616000", "103830.619000", "103830.621000", "103830.623000", "103830.626000", "103830.628000", "103830.631000", "103830.633000", "103830.636000", "103830.638000", "103830.640000", "103830.643000", "103830.645000", "103830.648000", "103830.650000", "103830.652000", "103830.655000", "103830.657000", "103830.660000", "103830.662000", "103830.664000", "103830.667000", "103830.669000", "103830.672000", "103830.674000", "103830.676000", "103830.679000", "103830.681000", "103830.684000", "103850.606000", "103850.609000", "103850.611000", "103850.614000", "103850.616000", "103850.619000", "103850.621000", "103850.623000", "103850.626000", "103850.628000", "103850.630000", "103850.633000", "103850.635000", "103850.637000", "103850.640000", "103850.642000", "103850.645000", "103850.647000", "103850.650000", "103850.653000", "103850.655000", "103850.657000", "103850.660000", "103850.662000", "103850.665000", "103850.667000", "103850.669000", "103850.672000", "103850.674000", "103850.676000", "103850.679000", "103850.681000", "103850.684000", "103910.606000", "103910.609000", "103910.611000", "103910.614000", "103910.617000", "103910.620000", "103910.622000", "103910.625000", "103910.627000", "103910.629000", "103910.632000", "103910.634000", "103910.637000", "103910.639000", "103910.642000", "103910.644000", "103910.646000", "103910.649000", "103910.651000", "103910.654000", "103910.656000", "103910.658000", "103910.661000", "103910.663000", "103910.666000", "103910.668000", "103910.671000", "103910.673000", "103910.675000", "103910.678000", "103910.680000", "103910.683000", "103928.894000", "103928.897000", "103928.900000", "103928.902000", "103928.905000", "103928.907000", "103928.909000", "103928.912000", "103928.915000", "103928.917000", "103928.920000", "103928.922000", "103928.924000", "103928.927000", "103928.929000", "103928.932000", "103928.934000", "103928.937000", "103928.939000", "103928.941000", "103928.944000", "103928.946000", "103928.948000", "103928.951000", "103928.953000", "103928.955000", "103928.958000", "103928.960000", "103928.963000", "103928.965000", "103928.967000"], "InstanceCreationTime": ["103430.610000", "103430.614000", "103430.616000", "103430.618000", "103430.621000", "103430.623000", "103430.632000", "103430.634000", "103430.640000", "103430.643000", "103430.659000", "103430.661000", "103430.664000", "103430.666000", "103430.668000", "103430.671000", "103430.673000", "103430.675000", "103430.678000", "103430.713000", "103450.606000", "103450.609000", "103450.611000", "103450.616000", "103450.619000", "103450.621000", "103450.623000", "103450.626000", "103450.628000", "103450.630000", "103450.633000", "103450.635000", "103450.637000", "103450.640000", "103450.642000", "103450.644000", "103450.647000", "103450.649000", "103450.651000", "103450.654000", "103450.656000", "103450.659000", "103450.661000", "103450.663000", "103450.666000", "103450.668000", "103450.670000", "103450.673000", "103450.675000", "103450.678000", "103450.680000", "103450.682000", "103450.685000", "103510.606000", "103510.609000", "103510.611000", "103510.616000", "103510.619000", "103510.621000", "103510.624000", "103510.626000", "103510.628000", "103510.631000", "103510.633000", "103510.635000", "103510.638000", "103510.640000", "103510.642000", "103510.645000", "103510.647000", "103510.657000", "103510.659000", "103510.662000", "103510.664000", "103510.666000", "103510.669000", "103510.671000", "103510.673000", "103510.676000", "103510.678000", "103510.681000", "103510.683000", "103510.685000", "103510.688000", "103510.690000", "103510.692000", "103530.606000", "103530.609000", "103530.611000", "103530.614000", "103530.618000", "103530.621000", "103530.623000", "103530.625000", "103530.628000", "103530.630000", "103530.632000", "103530.635000", "103530.637000", "103530.640000", "103530.642000", "103530.645000", "103530.647000", "103530.649000", "103530.652000", "103530.654000", "103530.656000", "103530.659000", "103530.661000", "103530.664000", "103530.666000", "103530.668000", "103530.671000", "103530.673000", "103530.675000", "103530.678000", "103530.680000", "103530.683000", "103530.685000", "103550.606000", "103550.609000", "103550.611000", "103550.614000", "103550.616000", "103550.618000", "103550.621000", "103550.623000", "103550.626000", "103550.628000", "103550.630000", "103550.633000", "103550.635000", "103550.637000", "103550.640000", "103550.642000", "103550.644000", "103550.647000", "103550.649000", "103550.652000", "103550.654000", "103550.656000", "103550.659000", "103550.661000", "103550.663000", "103550.666000", "103550.668000", "103550.671000", "103550.673000", "103550.675000", "103550.678000", "103550.680000", "103550.683000", "103610.606000", "103610.609000", "103610.611000", "103610.613000", "103610.616000", "103610.619000", "103610.621000", "103610.623000", "103610.626000", "103610.628000", "103610.631000", "103610.633000", "103610.636000", "103610.638000", "103610.641000", "103610.643000", "103610.646000", "103610.648000", "103610.651000", "103610.653000", "103610.655000", "103610.658000", "103610.660000", "103610.663000", "103610.665000", "103610.667000", "103610.670000", "103610.672000", "103610.675000", "103610.677000", "103610.679000", "103610.682000", "103630.606000", "103630.609000", "103630.611000", "103630.614000", "103630.616000", "103630.618000", "103630.621000", "103630.623000", "103630.625000", "103630.628000", "103630.630000", "103630.633000", "103630.635000", "103630.638000", "103630.640000", "103630.642000", "103630.645000", "103630.647000", "103630.650000", "103630.652000", "103630.655000", "103630.658000", "103630.660000", "103630.663000", "103630.665000", "103630.667000", "103630.670000", "103630.672000", "103630.674000", "103630.677000", "103630.679000", "103630.681000", "103630.684000", "103650.606000", "103650.609000", "103650.611000", "103650.614000", "103650.616000", "103650.619000", "103650.621000", "103650.624000", "103650.626000", "103650.628000", "103650.631000", "103650.633000", "103650.635000", "103650.638000", "103650.640000", "103650.643000", "103650.645000", "103650.648000", "103650.650000", "103650.653000", "103650.655000", "103650.657000", "103650.660000", "103650.663000", "103650.665000", "103650.668000", "103650.670000", "103650.673000", "103650.675000", "103650.677000", "103650.680000", "103650.682000", "103650.685000", "103710.606000", "103710.609000", "103710.611000", "103710.614000", "103710.616000", "103710.619000", "103710.621000", "103710.623000", "103710.626000", "103710.628000", "103710.631000", "103710.633000", "103710.635000", "103710.638000", "103710.640000", "103710.642000", "103710.645000", "103710.647000", "103710.650000", "103710.652000", "103710.654000", "103710.657000", "103710.659000", "103710.661000", "103710.664000", "103710.666000", "103710.669000", "103710.671000", "103710.673000", "103710.676000", "103710.678000", "103710.680000", "103710.683000", "103730.606000", "103730.609000", "103730.611000", "103730.614000", "103730.616000", "103730.618000", "103730.621000", "103730.623000", "103730.626000", "103730.628000", "103730.630000", "103730.633000", "103730.635000", "103730.638000", "103730.640000", "103730.642000", "103730.645000", "103730.647000", "103730.649000", "103730.652000", "103730.654000", "103730.657000", "103730.659000", "103730.661000", "103730.664000", "103730.666000", "103730.669000", "103730.671000", "103730.673000", "103730.676000", "103730.678000", "103730.691000", "103730.694000", "103750.606000", "103750.609000", "103750.611000", "103750.61400