{"AcquisitionMatrixPE": 64, "AcquisitionNumber": 1, "AcquisitionTime": "15:42:47.705000", "BandwidthPerPixelPhaseEncode": 28.935, "BaseResolution": 64, "BodyPartExamined": "BRAIN", "CoilCombinationMethod": "Sum of Squares", "ConsistencyInfo": "N4_VE11E_LATEST_20181129", "ConversionSoftware": "dcm2niix", "ConversionSoftwareVersion": "v1.0.20230411", "DerivedVendorReportedEchoSpacing": 0.000540003, "DeviceSerialNumber": "166182", "DwellTime": 3.4e-06, "EchoTime": 0.032, "EchoTrainLength": 64, "EffectiveEchoSpacing": 0.000540003, "FlipAngle": 40, "HeudiconvVersion": "0.13.1", "ImageOrientationPatientDICOM": [0.999765, 0.021645, -0.000861832, -0.0214658, 0.995265, 0.0947976], "ImageOrientationText": "Tra>Cor(5.4)>Sag(-0.2)", "ImageType": ["ORIGINAL", "PRIMARY", "M", "ND", "NORM", "MOSAIC"], "ImagingFrequency": 123.257024, "InPlanePhaseEncodingDirectionDICOM": "COL", "InstitutionAddress": "PEARSE STREET .,City,District,IE,D2", "InstitutionName": "TCIN", "InstitutionalDepartmentName": "MRI", "MRAcquisitionType": "2D", "MagneticFieldStrength": 3, "Manufacturer": "Siemens", "ManufacturersModelName": "Prisma", "Modality": "MR", "MultibandAccelerationFactor": 4, "NonlinearGradientCorrection": false, "PartialFourier": 1, "PatientPosition": "HFS", "PercentPhaseFOV": 100, "PercentSampling": 100, "PhaseEncodingDirection": "j-", "PhaseEncodingSteps": 64, "PhaseResolution": 1, "PixelBandwidth": 2300, "ProcedureStepDescription": "Rhodri^Head BOLD", "ProtocolName": "cmrr_mbep2d_bold_Pictures_AP", "PulseSequenceDetails": "%SiemensSeq%\\ep2d_bold", "ReceiveCoilActiveElements": "HC2,4,6,7;SC", "ReceiveCoilName": "HeadNeck_64", "ReconMatrixPE": 64, "RefLinesPE": 12, "RepetitionTime": 0.61, "SAR": 0.316132, "ScanOptions": "FS", "ScanningSequence": "EP", "SequenceName": "*epfid2d1_64", "SequenceVariant": "SK", "SeriesDescription": "cmrr_mbep2d_bold_Pictures_AP", "SeriesNumber": 10, "ShimSetting": [-3651, -7367, 3788, 972, -146, 124, -97, 122], "SliceThickness": 3, "SliceTiming": [0.2625, 0, 0.3275, 0.065, 0.3925, 0.13, 0.46, 0.1975, 0.525, 0.2625, 0, 0.3275, 0.065, 0.3925, 0.13, 0.46, 0.1975, 0.525, 0.2625, 0, 0.3275, 0.065, 0.3925, 0.13, 0.46, 0.1975, 0.525, 0.2625, 0, 0.3275, 0.065, 0.3925, 0.13, 0.46, 0.1975, 0.525], "SoftwareVersions": "syngo MR E11", "SpacingBetweenSlices": 3.3, "StationName": "AWP166182", "TaskName": "pictures", "TotalReadoutTime": 0.0340202, "TxRefAmp": 246.567, "dcmmeta_affine": [[-2.999295949935913, -0.06439743936061859, -0.009601814672350883, 100.98286437988281], [-0.0649348795413971, 2.985795259475708, 0.31269749999046326, -103.01155090332031], [-0.0025854958221316338, -0.28439268469810486, 3.285137414932251, -101.93004608154297], [0.0, 0.0, 0.0, 1.0]], "dcmmeta_reorient_transform": [[0.0, -1.0, 0.0, 63.0], [1.0, 0.0, 0.0, 0.0], [0.0, 0.0, 1.0, 0.0], [0.0, 0.0, 0.0, 1.0]], "dcmmeta_shape": [64, 64, 36, 510], "dcmmeta_slice_dim": 2, "dcmmeta_version": 0.6, "global": {"const": {"AcquisitionMatrix": [64, 0, 0, 64], "AngioFlag": "N", "BitsAllocated": 16, "BitsStored": 12, "BodyPartExamined": "BRAIN", "Columns": 384, "EchoNumbers": 1, "EchoTime": 32.0, "EchoTrainLength": 64, "FlipAngle": 40.0, "HighBit": 11, "ImageOrientationPatient": [0.99976534892413, 0.02164496099081, -0.0008618319534, -0.0214658119091, 0.99526511093922, 0.09479756255427], "ImagePositionPatient": [-566.50960204813, -573.21038861889, -164.93593743012], "ImageType": ["ORIGINAL", "PRIMARY", "M", "ND", "NORM", "MOSAIC"], "ImagedNucleus": "1H", "ImagingFrequency": 123.257024, "InPlanePhaseEncodingDirection": "COL", "MRAcquisitionType": "2D", "MagneticFieldStrength": 3.0, "Manufacturer": "SIEMENS", "ManufacturerModelName": "Prisma", "Modality": "MR", "NumberOfAverages": 1.0, "NumberOfPhaseEncodingSteps": 64, "PercentPhaseFieldOfView": 100.0, "PercentSampling": 100.0, "PerformedProcedureStepStartTime": "151524.614000", "PhotometricInterpretation": "MONOCHROME2", "PixelBandwidth": 2300.0, "PixelRepresentation": 0, "PixelSpacing": [3.0, 3.0], "ProtocolName": "cmrr_mbep2d_bold_Pictures_AP", "RepetitionTime": 610.0, "Rows": 384, "SAR": 0.31613204324154, "SamplesPerPixel": 1, "ScanOptions": "FS", "ScanningSequence": "EP", "SequenceName": "*epfid2d1_64", "SequenceVariant": "SK", "SeriesDescription": "cmrr_mbep2d_bold_Pictures_AP", "SeriesNumber": 10, "SeriesTime": "154311.900000", "SliceLocation": -111.52584538511, "SliceThickness": 3.0, "SmallestImagePixelValue": 0, "SoftwareVersions": "syngo MR E11", "SpacingBetweenSlices": 3.299999913584, "SpecificCharacterSet": "ISO_IR 100", "StudyID": "2", "StudyTime": "151524.554000", "TransmitCoilName": "Body", "VariableFlipAngleFlag": "N", "WindowCenterWidthExplanation": "Algo1"}, "slices": {}}, "time": {"samples": {"AcquisitionNumber": [1, 2, 3, 4, 5, 6, 7, 8, 9, 10, 11, 12, 13, 14, 15, 16, 17, 18, 19, 20, 21, 22, 23, 24, 25, 26, 27, 28, 29, 30, 31, 32, 33, 34, 35, 36, 37, 38, 39, 40, 41, 42, 43, 44, 45, 46, 47, 48, 49, 50, 51, 52, 53, 54, 55, 56, 57, 58, 59, 60, 61, 62, 63, 64, 65, 66, 67, 68, 69, 70, 71, 72, 73, 74, 75, 76, 77, 78, 79, 80, 81, 82, 83, 84, 85, 86, 87, 88, 89, 90, 91, 92, 93, 94, 95, 96, 97, 98, 99, 100, 101, 102, 103, 104, 105, 106, 107, 108, 109, 110, 111, 112, 113, 114, 115, 116, 117, 118, 119, 120, 121, 122, 123, 124, 125, 126, 127, 128, 129, 130, 131, 132, 133, 134, 135, 136, 137, 138, 139, 140, 141, 142, 143, 144, 145, 146, 147, 148, 149, 150, 151, 152, 153, 154, 155, 156, 157, 158, 159, 160, 161, 162, 163, 164, 165, 166, 167, 168, 169, 170, 171, 172, 173, 174, 175, 176, 177, 178, 179, 180, 181, 182, 183, 184, 185, 186, 187, 188, 189, 190, 191, 192, 193, 194, 195, 196, 197, 198, 199, 200, 201, 202, 203, 204, 205, 206, 207, 208, 209, 210, 211, 212, 213, 214, 215, 216, 217, 218, 219, 220, 221, 222, 223, 224, 225, 226, 227, 228, 229, 230, 231, 232, 233, 234, 235, 236, 237, 238, 239, 240, 241, 242, 243, 244, 245, 246, 247, 248, 249, 250, 251, 252, 253, 254, 255, 256, 257, 258, 259, 260, 261, 262, 263, 264, 265, 266, 267, 268, 269, 270, 271, 272, 273, 274, 275, 276, 277, 278, 279, 280, 281, 282, 283, 284, 285, 286, 287, 288, 289, 290, 291, 292, 293, 294, 295, 296, 297, 298, 299, 300, 301, 302, 303, 304, 305, 306, 307, 308, 309, 310, 311, 312, 313, 314, 315, 316, 317, 318, 319, 320, 321, 322, 323, 324, 325, 326, 327, 328, 329, 330, 331, 332, 333, 334, 335, 336, 337, 338, 339, 340, 341, 342, 343, 344, 345, 346, 347, 348, 349, 350, 351, 352, 353, 354, 355, 356, 357, 358, 359, 360, 361, 362, 363, 364, 365, 366, 367, 368, 369, 370, 371, 372, 373, 374, 375, 376, 377, 378, 379, 380, 381, 382, 383, 384, 385, 386, 387, 388, 389, 390, 391, 392, 393, 394, 395, 396, 397, 398, 399, 400, 401, 402, 403, 404, 405, 406, 407, 408, 409, 410, 411, 412, 413, 414, 415, 416, 417, 418, 419, 420, 421, 422, 423, 424, 425, 426, 427, 428, 429, 430, 431, 432, 433, 434, 435, 436, 437, 438, 439, 440, 441, 442, 443, 444, 445, 446, 447, 448, 449, 450, 451, 452, 453, 454, 455, 456, 457, 458, 459, 460, 461, 462, 463, 464, 465, 466, 467, 468, 469, 470, 471, 472, 473, 474, 475, 476, 477, 478, 479, 480, 481, 482, 483, 484, 485, 486, 487, 488, 489, 490, 491, 492, 493, 494, 495, 496, 497, 498, 499, 500, 501, 502, 503, 504, 505, 506, 507, 508, 509, 510], "AcquisitionTime": ["154247.705000", "154248.315000", "154248.925000", "154249.535000", "154250.145000", "154250.755000", "154251.365000", "154251.975000", "154252.585000", "154253.195000", "154253.805000", "154254.415000", "154255.025000", "154255.635000", "154256.245000", "154256.855000", "154257.465000", "154258.075000", "154258.685000", "154259.295000", "154259.905000", "154300.515000", "154301.125000", "154301.735000", "154302.345000", "154302.955000", "154303.565000", "154304.175000", "154304.785000", "154305.395000", "154306.005000", "154306.615000", "154307.225000", "154307.835000", "154308.445000", "154309.055000", "154309.665000", "154310.275000", "154310.885000", "154311.495000", "154312.105000", "154312.715000", "154313.325000", "154313.935000", "154314.545000", "154315.155000", "154315.765000", "154316.375000", "154316.985000", "154317.595000", "154318.205000", "154318.815000", "154319.425000", "154320.035000", "154320.645000", "154321.255000", "154321.865000", "154322.475000", "154323.085000", "154323.695000", "154324.305000", "154324.915000", "154325.525000", "154326.135000", "154326.745000", "154327.355000", "154327.965000", "154328.575000", "154329.185000", "154329.795000", "154330.405000", "154331.015000", "154331.625000", "154332.235000", "154332.845000", "154333.455000", "154334.065000", "154334.675000", "154335.285000", "154335.895000", "154336.505000", "154337.115000", "154337.725000", "154338.335000", "154338.945000", "154339.555000", "154340.165000", "154340.775000", "154341.385000", "154341.995000", "154342.605000", "154343.215000", "154343.825000", "154344.435000", "154345.045000", "154345.655000", "154346.265000", "154346.875000", "154347.485000", "154348.095000", "154348.705000", "154349.315000", "154349.925000", "154350.535000", "154351.145000", "154351.755000", "154352.365000", "154352.975000", "154353.585000", "154354.195000", "154354.805000", "154355.415000", "154356.025000", "154356.635000", "154357.245000", "154357.855000", "154358.465000", "154359.075000", "154359.685000", "154400.295000", "154400.905000", "154401.515000", "154402.125000", "154402.735000", "154403.345000", "154403.955000", "154404.565000", "154405.175000", "154405.785000", "154406.395000", "154407.005000", "154407.615000", "154408.225000", "154408.835000", "154409.445000", "154410.055000", "154410.665000", "154411.275000", "154411.885000", "154412.495000", "154413.105000", "154413.715000", "154414.325000", "154414.935000", "154415.545000", "154416.155000", "154416.765000", "154417.375000", "154417.985000", "154418.595000", "154419.205000", "154419.815000", "154420.425000", "154421.035000", "154421.645000", "154422.255000", "154422.865000", "154423.475000", "154424.085000", "154424.695000", "154425.305000", "154425.915000", "154426.525000", "154427.135000", "154427.745000", "154428.355000", "154428.965000", "154429.575000", "154430.185000", "154430.795000", "154431.405000", "154432.015000", "154432.625000", "154433.235000", "154433.845000", "154434.455000", "154435.065000", "154435.675000", "154436.285000", "154436.895000", "154437.505000", "154438.115000", "154438.725000", "154439.335000", "154439.945000", "154440.555000", "154441.165000", "154441.775000", "154442.385000", "154442.995000", "154443.605000", "154444.215000", "154444.825000", "154445.435000", "154446.045000", "154446.655000", "154447.265000", "154447.875000", "154448.485000", "154449.095000", "154449.705000", "154450.315000", "154450.925000", "154451.535000", "154452.145000", "154452.755000", "154453.365000", "154453.975000", "154454.585000", "154455.195000", "154455.805000", "154456.415000", "154457.025000", "154457.635000", "154458.245000", "154458.855000", "154459.465000", "154500.075000", "154500.685000", "154501.295000", "154501.905000", "154502.515000", "154503.125000", "154503.735000", "154504.345000", "154504.955000", "154505.565000", "154506.175000", "154506.785000", "154507.395000", "154508.005000", "154508.615000", "154509.225000", "154509.835000", "154510.445000", "154511.055000", "154511.665000", "154512.275000", "154512.885000", "154513.495000", "154514.105000", "154514.715000", "154515.325000", "154515.935000", "154516.545000", "154517.155000", "154517.765000", "154518.375000", "154518.985000", "154519.595000", "154520.205000", "154520.815000", "154521.425000", "154522.035000", "154522.645000", "154523.255000", "154523.865000", "154524.475000", "154525.085000", "154525.695000", "154526.305000", "154526.915000", "154527.525000", "154528.135000", "154528.745000", "154529.355000", "154529.965000", "154530.575000", "154531.185000", "154531.795000", "154532.405000", "154533.015000", "154533.625000", "154534.235000", "154534.845000", "154535.455000", "154536.065000", "154536.675000", "154537.285000", "154537.895000", "154538.505000", "154539.115000", "154539.725000", "154540.335000", "154540.945000", "154541.555000", "154542.165000", "154542.775000", "154543.385000", "154543.995000", "154544.605000", "154545.215000", "154545.825000", "154546.435000", "154547.045000", "154547.655000", "154548.265000", "154548.875000", "154549.485000", "154550.095000", "154550.705000", "154551.315000", "154551.925000", "154552.535000", "154553.145000", "154553.755000", "154554.365000", "154554.975000", "154555.585000", "154556.195000", "154556.805000", "154557.415000", "154558.025000", "154558.635000", "154559.245000", "154559.855000", "154600.465000", "154601.075000", "154601.685000", "154602.295000", "154602.905000", "154603.515000", "154604.125000", "154604.735000", "154605.345000", "154605.955000", "154606.565000", "154607.175000", "154607.785000", "154608.395000", "154609.005000", "154609.615000", "154610.225000", "154610.835000", "154611.445000", "154612.055000", "154612.665000", "154613.275000", "154613.885000", "154614.495000", "154615.105000", "154615.715000", "154616.325000", "154616.935000", "154617.545000", "154618.155000", "154618.765000", "154619.375000", "154619.985000", "154620.595000", "154621.205000", "154621.815000", "154622.425000", "154623.035000", "154623.645000", "154624.255000", "154624.865000", "154625.475000", "154626.085000", "154626.695000", "154627.305000", "154627.915000", "154628.525000", "154629.135000", "154629.745000", "154630.355000", "154630.965000", "154631.575000", "154632.185000", "154632.795000", "154633.405000", "154634.015000", "154634.625000", "154635.235000", "154635.845000", "154636.455000", "154637.065000", "154637.675000", "154638.285000", "154638.895000", "154639.505000", "154640.115000", "154640.725000", "154641.335000", "154641.945000", "154642.555000", "154643.165000", "154643.775000", "154644.385000", "154644.995000", "154645.605000", "154646.215000", "154646.825000", "154647.435000", "154648.045000", "154648.655000", "154649.265000", "154649.875000", "154650.485000", "154651.095000", "154651.705000", "154652.315000", "154652.925000", "154653.535000", "154654.145000", "154654.755000", "154655.365000", "154655.975000", "154656.585000", "154657.195000", "154657.805000", "154658.415000", "154659.025000", "154659.635000", "154700.245000", "154700.855000", "154701.465000", "154702.075000", "154702.685000", "154703.295000", "154703.905000", "154704.515000", "154705.125000", "154705.735000", "154706.345000", "154706.955000", "154707.565000", "154708.175000", "154708.785000", "154709.395000", "154710.005000", "154710.615000", "154711.225000", "154711.835000", "154712.445000", "154713.055000", "154713.665000", "154714.275000", "154714.885000", "154715.495000", "154716.105000", "154716.715000", "154717.325000", "154717.935000", "154718.545000", "154719.155000", "154719.765000", "154720.375000", "154720.985000", "154721.595000", "154722.205000", "154722.815000", "154723.425000", "154724.035000", "154724.645000", "154725.255000", "154725.865000", "154726.475000", "154727.085000", "154727.695000", "154728.305000", "154728.915000", "154729.525000", "154730.135000", "154730.745000", "154731.355000", "154731.965000", "154732.575000", "154733.185000", "154733.795000", "154734.405000", "154735.015000", "154735.625000", "154736.235000", "154736.845000", "154737.455000", "154738.065000", "154738.675000", "154739.285000", "154739.895000", "154740.505000", "154741.115000", "154741.725000", "154742.335000", "154742.945000", "154743.555000", "154744.165000", "154744.775000", "154745.385000", "154745.995000", "154746.605000", "154747.215000", "154747.825000", "154748.435000", "154749.045000", "154749.655000", "154750.265000", "154750.875000", "154751.485000", "154752.095000", "154752.705000", "154753.315000", "154753.925000", "154754.535000", "154755.145000", "154755.755000", "154756.365000", "154756.975000", "154757.585000", "154758.195000"], "ContentTime": ["154311.904000", "154311.907000", "154311.909000", "154311.912000", "154311.914000", "154311.918000", "154311.920000", "154311.923000", "154311.925000", "154311.928000", "154311.930000", "154311.933000", "154311.935000", "154311.943000", "154311.946000", "154311.948000", "154311.950000", "154311.953000", "154311.955000", "154311.958000", "154311.960000", "154311.963000", "154311.965000", "154311.967000", "154311.970000", "154311.972000", "154311.975000", "154311.977000", "154311.979000", "154311.982000", "154311.988000", "154311.991000", "154311.993000", "154311.995000", "154311.998000", "154312.001000", "154312.004000", "154312.006000", "154312.009000", "154331.899000", "154331.902000", "154331.904000", "154331.907000", "154331.909000", "154331.912000", "154331.914000", "154331.916000", "154331.919000", "154331.921000", "154331.924000", "154331.926000", "154331.928000", "154331.931000", "154331.933000", "154331.936000", "154331.938000", "154331.941000", "154331.943000", "154331.946000", "154331.948000", "154331.951000", "154331.953000", "154331.955000", "154331.958000", "154331.960000", "154331.963000", "154331.965000", "154331.967000", "154331.970000", "154331.972000", "154331.975000", "154331.977000", "154351.899000", "154351.902000", "154351.904000", "154351.922000", "154351.924000", "154351.926000", "154351.929000", "154351.931000", "154351.934000", "154351.936000", "154351.939000", "154351.941000", "154351.944000", "154351.946000", "154351.948000", "154351.951000", "154351.953000", "154351.956000", "154351.958000", "154351.960000", "154351.963000", "154351.965000", "154351.968000", "154351.970000", "154351.972000", "154351.975000", "154351.978000", "154351.980000", "154351.983000", "154351.985000", "154351.988000", "154351.990000", "154411.899000", "154411.902000", "154411.904000", "154411.907000", "154411.909000", "154411.912000", "154411.920000", "154411.923000", "154411.925000", "154411.928000", "154411.931000", "154411.933000", "154411.936000", "154411.938000", "154411.941000", "154411.943000", "154411.946000", "154411.948000", "154411.951000", "154411.953000", "154411.955000", "154411.958000", "154411.960000", "154411.963000", "154411.965000", "154411.967000", "154411.970000", "154411.972000", "154411.975000", "154411.977000", "154411.980000", "154411.982000", "154411.985000", "154431.899000", "154431.902000", "154431.905000", "154431.907000", "154431.910000", "154431.912000", "154431.914000", "154431.917000", "154431.919000", "154431.922000", "154431.924000", "154431.927000", "154431.929000", "154431.931000", "154431.934000", "154431.936000", "154431.939000", "154431.941000", "154431.944000", "154431.946000", "154431.962000", "154431.965000", "154431.967000", "154431.970000", "154431.972000", "154431.974000", "154431.977000", "154431.979000", "154431.982000", "154431.984000", "154431.987000", "154431.989000", "154431.992000", "154451.899000", "154451.902000", "154451.905000", "154451.908000", "154451.910000", "154451.913000", "154451.916000", "154451.918000", "154451.921000", "154451.923000", "154451.926000", "154451.928000", "154451.931000", "154451.933000", "154451.936000", "154451.938000", "154451.940000", "154451.943000", "154451.945000", "154451.948000", "154451.950000", "154451.952000", "154451.955000", "154451.957000", "154451.960000", "154451.962000", "154451.965000", "154451.967000", "154451.970000", "154451.972000", "154451.974000", "154451.977000", "154451.979000", "154511.899000", "154511.902000", "154511.904000", "154511.907000", "154511.909000", "154511.912000", "154511.914000", "154511.917000", "154511.919000", "154511.922000", "154511.924000", "154511.926000", "154511.929000", "154511.931000", "154511.934000", "154511.936000", "154511.939000", "154511.941000", "154511.944000", "154511.946000", "154511.949000", "154511.951000", "154511.954000", "154511.956000", "154511.958000", "154511.961000", "154511.963000", "154511.966000", "154511.969000", "154511.971000", "154511.973000", "154511.976000", "154511.978000", "154531.899000", "154531.902000", "154531.904000", "154531.907000", "154531.909000", "154531.912000", "154531.914000", "154531.916000", "154531.919000", "154531.921000", "154531.924000", "154531.926000", "154531.929000", "154531.931000", "154531.934000", "154531.936000", "154531.938000", "154531.941000", "154531.943000", "154531.946000", "154531.948000", "154531.951000", "154531.953000", "154531.955000", "154531.958000", "154531.960000", "154531.963000", "154531.965000", "154531.968000", "154531.970000", "154531.972000", "154531.975000", "154551.899000", "154551.902000", "154551.904000", "154551.907000", "154551.909000", "154551.912000", "154551.914000", "154551.916000", "154551.919000", "154551.921000", "154551.924000", "154551.926000", "154551.928000", "154551.931000", "154551.933000", "154551.936000", "154551.938000", "154551.940000", "154551.943000", "154551.945000", "154551.948000", "154551.950000", "154551.952000", "154551.955000", "154551.957000", "154551.960000", "154551.962000", "154551.965000", "154551.968000", "154551.970000", "154551.973000", "154551.975000", "154551.978000", "154611.899000", "154611.902000", "154611.904000", "154611.907000", "154611.909000", "154611.912000", "154611.914000", "154611.917000", "154611.919000", "154611.921000", "154611.924000", "154611.926000", "154611.929000", "154611.931000", "154611.933000", "154611.936000", "154611.938000", "154611.941000", "154611.943000", "154611.945000", "154611.948000", "154611.950000", "154611.952000", "154611.955000", "154611.957000", "154611.960000", "154611.962000", "154611.964000", "154611.967000", "154611.969000", "154611.972000", "154611.974000", "154611.976000", "154631.899000", "154631.902000", "154631.905000", "154631.907000", "154631.910000", "154631.912000", "154631.915000", "154631.918000", "154631.920000", "154631.922000", "154631.925000", "154631.928000", "154631.930000", "154631.932000", "154631.935000", "154631.937000", "154631.940000", "154631.942000", "154631.945000", "154631.947000", "154631.950000", "154631.952000", "154631.954000", "154631.957000", "154631.959000", "154631.962000", "154631.964000", "154631.967000", "154631.969000", "154631.972000", "154631.974000", "154631.977000", "154631.979000", "154651.899000", "154651.902000", "154651.904000", "154651.907000", "154651.909000", "154651.912000", "154651.914000", "154651.922000", "154651.925000", "154651.927000", "154651.930000", "154651.932000", "154651.935000", "154651.937000", "154651.939000", "154651.942000", "154651.944000", "154651.947000", "154651.949000", "154651.952000", "154651.954000", "154651.956000", "154651.959000", "154651.961000", "154651.964000", "154651.966000", "154651.968000", "154651.971000", "154651.973000", "154651.976000", "154651.978000", "154651.981000", "154651.983000", "154711.899000", "154711.902000", "154711.905000", "154711.907000", "154711.910000", "154711.912000", "154711.914000", "154711.917000", "154711.919000", "154711.922000", "154711.924000", "154711.927000", "154711.929000", "154711.932000", "154711.935000", "154711.937000", "154711.940000", "154711.942000", "154711.945000", "154711.947000", "154711.949000", "154711.952000", "154711.954000", "154711.957000", "154711.959000", "154711.962000", "154711.964000", "154711.966000", "154711.969000", "154711.971000", "154711.974000", "154711.976000", "154731.911000", "154731.914000", "154731.916000", "154731.919000", "154731.922000", "154731.924000", "154731.926000", "154731.929000", "154731.931000", "154731.934000", "154731.936000", "154731.939000", "154731.941000", "154731.943000", "154731.946000", "154731.948000", "154731.951000", "154731.953000", "154731.956000", "154731.958000", "154731.961000", "154731.963000", "154731.965000", "154731.968000", "154731.970000", "154731.973000", "154731.975000", "154731.978000", "154731.980000", "154731.983000", "154731.985000", "154731.987000", "154731.990000", "154751.899000", "154751.902000", "154751.904000", "154751.907000", "154751.909000", "154751.912000", "154751.914000", "154751.917000", "154751.919000", "154751.922000", "154751.924000", "154751.926000", "154751.929000", "154751.931000", "154751.934000", "154751.936000", "154751.939000", "154751.941000", "154751.943000", "154751.946000", "154751.948000", "154751.951000", "154751.953000", "154751.956000", "154751.958000", "154751.961000", "154751.963000", "154751.966000", "154751.968000", "154751.971000", "154751.973000", "154751.975000", "154751.978000", "154758.970000", "154758.973000", "154758.975000", "154758.978000", "154758.981000", "154758.983000", "154758.985000", "154758.988000", "154758.991000", "154758.993000", "154758.996000", "154758.998000"], "InstanceCreationTime": ["154311.904000", "154311.907000", "154311.909000", "154311.912000", "154311.914000", "154311.918000", "154311.920000", "154311.923000", "154311.925000", "154311.928000", "154311.930000", "154311.933000", "154311.935000", "154311.943000", "154311.946000", "154311.948000", "154311.950000", "154311.953000", "154311.955000", "154311.958000", "154311.960000", "154311.963000", "154311.965000", "154311.967000", "154311.970000", "154311.972000", "154311.975000", "154311.977000", "154311.979000", "154311.982000", "154311.988000", "154311.991000", "154311.993000", "154311.995000", "154311.998000", "154312.001000", "154312.004000", "154312.006000", "154312.009000", "154331.899000", "154331.902000", "154331.904000", "154331.907000", "154331.909000", "154331.912000", "154331.914000", "154331.916000", "154331.919000", "154331.921000", "154331.924000", "154331.926000", "154331.928000", "154331.931000", "154331.933000", "154331.936000", "154331.938000", "154331.941000", "154331.943000", "154331.946000", "154331.948000", "154331.951000", "154331.953000", "154331.955000", "154331.958000", "154331.960000", "154331.963000", "154331.965000", "154331.967000", "154331.970000", "154331.972000", "154331.975000", "154331.977000", "154351.899000", "154351.902000", "154351.904000", "154351.922000", "154351.924000", "154351.926000", "154351.929000", "154351.931000", "154351.934000", "154351.936000", "154351.939000", "154351.941000", "154351.944000", "154351.946000", "154351.948000", "154351.951000", "154351.953000", "154351.956000", "154351.958000", "154351.960000", "154351.963000", "154351.965000", "154351.968000", "154351.970000", "154351.972000", "154351.975000", "154351.978000", "154351.980000", "154351.983000", "154351.985000", "154351.988000", "154351.990000", "154411.899000", "154411.902000", "154411.904000", "154411.907000", "154411.909000", "154411.912000", "154411.920000", "154411.923000", "154411.925000", "154411.928000", "154411.931000", "154411.933000", "154411.936000", "154411.938000", "154411.941000", "154411.943000", "154411.946000", "154411.948000", "154411.951000", "154411.953000", "154411.955000", "154411.958000", "154411.960000", "154411.963000", "154411.965000", "154411.967000", "154411.970000", "154411.972000", "154411.975000", "154411.977000", "154411.980000", "154411.982000", "154411.985000", "154431.899000", "154431.902000", "154431.905000", "154431.907000", "154431.910000", "154431.912000", "154431.914000", "154431.917000", "154431.919000", "154431.922000", "154431.924000", "154431.927000", "154431.929000", "154431.931000", "154431.934000", "154431.936000", "154431.939000", "154431.941000", "154431.944000", "154431.946000", "154431.962000", "154431.965000", "154431.967000", "154431.970000", "154431.972000", "154431.974000", "154431.977000", "154431.979000", "154431.982000", "154431.984000", "154431.987000", "154431.989000", "154431.992000", "154451.899000", "154451.902000", "154451.905000", "154451.908000", "154451.910000", "154451.913000", "154451.916000", "154451.918000", "154451.921000", "154451.923000", "154451.926000", "154451.928000", "154451.931000", "154451.933000", "154451.936000", "154451.938000", "154451.940000", "154451.943000", "154451.945000", "154451.948000", "154451.950000", "154451.952000", "154451.955000", "154451.957000", "154451.960000", "154451.962000", "154451.965000", "154451.967000", "154451.970000", "154451.972000", "154451.974000", "154451.977000", "154451.979000", "154511.899000", "154511.902000", "154511.904000", "154511.907000", "154511.909000", "154511.912000", "154511.914000", "154511.917000", "154511.919000", "154511.922000", "154511.924000", "154511.926000", "154511.929000", "154511.931000", "154511.934000", "154511.936000", "154511.939000", "154511.941000", "154511.944000", "154511.946000", "154511.949000", "154511.951000", "154511.954000", "154511.956000", "154511.958000", "154511.961000", "154511.963000", "154511.966000", "154511.969000", "154511.971000", "154511.973000", "154511.976000", "154511.978000", "154531.899000", "154531.902000", "154531.904000", "154531.907000", "154531.909000", "154531.912000", "154531.914000", "154531.916000", "154531.919000", "154531.921000", "154531.924000", "154531.926000", "154531.929000", "154531.931000", "154531.934000", "154531.936000", "154531.938000", "154531.941000", "154531.943000", "154531.946000", "154531.948000", "154531.951000", "154531.953000", "154531.955000", "154531.958000", "154531.960000", "154531.963000", "154531.965000", "154531.968000", "154531.970000", "154531.972000", "154531.975000", "154551.899000", "154551.902000", "154551.904000", "154551.907000", "154551.909000", "154551.912000", "154551.914000", "154551.916000", "154551.919000", "154551.921000", "154551.924000", "154551.926000", "154551.928000", "154551.931000", "154551.933000", "154551.936000", "154551.938000", "154551.940000", "154551.943000", "154551.945000", "154551.948000", "154551.950000", "154551.952000", "154551.955000", "154551.957000", "154551.960000", "154551.962000", "154551.965000", "154551.968000", "154551.970000", "154551.973000", "154551.975000", "154551.978000", "154611.899000", "154611.902000", "154611.904000", "154611.907000", "154611.909000", "154611.912000", "154611.914000", "154611.917000", "154611.919000", "154611.921000", "154611.924000", "154611.926000", "154611.929000", "154611.931000", "154611.933000", "154611.936000", "154611.938000", "154611.941000", "154611.