{"AcquisitionMatrixPE": 64, "AcquisitionNumber": 1, "AcquisitionTime": "15:32:5.705000", "BandwidthPerPixelPhaseEncode": 28.935, "BaseResolution": 64, "BodyPartExamined": "BRAIN", "CoilCombinationMethod": "Sum of Squares", "ConsistencyInfo": "N4_VE11E_LATEST_20181129", "ConversionSoftware": "dcm2niix", "ConversionSoftwareVersion": "v1.0.20230411", "DerivedVendorReportedEchoSpacing": 0.000540003, "DeviceSerialNumber": "166182", "DwellTime": 3.4e-06, "EchoTime": 0.032, "EchoTrainLength": 64, "EffectiveEchoSpacing": 0.000540003, "FlipAngle": 40, "HeudiconvVersion": "0.13.1", "ImageOrientationPatientDICOM": [0.999765, 0.021645, -0.000861832, -0.0214658, 0.995265, 0.0947976], "ImageOrientationText": "Tra>Cor(5.4)>Sag(-0.2)", "ImageType": ["ORIGINAL", "PRIMARY", "M", "ND", "NORM", "MOSAIC"], "ImagingFrequency": 123.257015, "InPlanePhaseEncodingDirectionDICOM": "COL", "InstitutionAddress": "PEARSE STREET .,City,District,IE,D2", "InstitutionName": "TCIN", "InstitutionalDepartmentName": "MRI", "MRAcquisitionType": "2D", "MagneticFieldStrength": 3, "Manufacturer": "Siemens", "ManufacturersModelName": "Prisma", "Modality": "MR", "MultibandAccelerationFactor": 4, "NonlinearGradientCorrection": false, "PartialFourier": 1, "PatientPosition": "HFS", "PercentPhaseFOV": 100, "PercentSampling": 100, "PhaseEncodingDirection": "j-", "PhaseEncodingSteps": 64, "PhaseResolution": 1, "PixelBandwidth": 2300, "ProcedureStepDescription": "Rhodri^Head BOLD", "ProtocolName": "cmrr_mbep2d_bold_Pictures_AP", "PulseSequenceDetails": "%SiemensSeq%\\ep2d_bold", "ReceiveCoilActiveElements": "HC2,4,6,7;SC", "ReceiveCoilName": "HeadNeck_64", "ReconMatrixPE": 64, "RefLinesPE": 12, "RepetitionTime": 0.61, "SAR": 0.316132, "ScanOptions": "FS", "ScanningSequence": "EP", "SequenceName": "*epfid2d1_64", "SequenceVariant": "SK", "SeriesDescription": "cmrr_mbep2d_bold_Pictures_AP", "SeriesNumber": 8, "ShimSetting": [-3651, -7367, 3788, 972, -146, 124, -97, 122], "SliceThickness": 3, "SliceTiming": [0.26, 0, 0.3275, 0.065, 0.3925, 0.13, 0.4575, 0.195, 0.5225, 0.26, 0, 0.3275, 0.065, 0.3925, 0.13, 0.4575, 0.195, 0.5225, 0.26, 0, 0.3275, 0.065, 0.3925, 0.13, 0.4575, 0.195, 0.5225, 0.26, 0, 0.3275, 0.065, 0.3925, 0.13, 0.4575, 0.195, 0.5225], "SoftwareVersions": "syngo MR E11", "SpacingBetweenSlices": 3.3, "StationName": "AWP166182", "TaskName": "pictures", "TotalReadoutTime": 0.0340202, "TxRefAmp": 246.567, "dcmmeta_affine": [[-2.999295949935913, -0.06439743936061859, -0.009601814672350883, 100.98286437988281], [-0.0649348795413971, 2.985795259475708, 0.31269749999046326, -103.01155090332031], [-0.0025854958221316338, -0.28439268469810486, 3.285137414932251, -101.93004608154297], [0.0, 0.0, 0.0, 1.0]], "dcmmeta_reorient_transform": [[0.0, -1.0, 0.0, 63.0], [1.0, 0.0, 0.0, 0.0], [0.0, 0.0, 1.0, 0.0], [0.0, 0.0, 0.0, 1.0]], "dcmmeta_shape": [64, 64, 36, 510], "dcmmeta_slice_dim": 2, "dcmmeta_version": 0.6, "global": {"const": {"AcquisitionMatrix": [64, 0, 0, 64], "AngioFlag": "N", "BitsAllocated": 16, "BitsStored": 12, "BodyPartExamined": "BRAIN", "Columns": 384, "EchoNumbers": 1, "EchoTime": 32.0, "EchoTrainLength": 64, "FlipAngle": 40.0, "HighBit": 11, "ImageOrientationPatient": [0.99976534892413, 0.02164496099081, -0.0008618319534, -0.0214658119091, 0.99526511093922, 0.09479756255427], "ImagePositionPatient": [-566.50960204813, -573.21038861889, -164.93593743012], "ImageType": ["ORIGINAL", "PRIMARY", "M", "ND", "NORM", "MOSAIC"], "ImagedNucleus": "1H", "ImagingFrequency": 123.257015, "InPlanePhaseEncodingDirection": "COL", "MRAcquisitionType": "2D", "MagneticFieldStrength": 3.0, "Manufacturer": "SIEMENS", "ManufacturerModelName": "Prisma", "Modality": "MR", "NumberOfAverages": 1.0, "NumberOfPhaseEncodingSteps": 64, "PercentPhaseFieldOfView": 100.0, "PercentSampling": 100.0, "PerformedProcedureStepStartTime": "151524.614000", "PhotometricInterpretation": "MONOCHROME2", "PixelBandwidth": 2300.0, "PixelRepresentation": 0, "PixelSpacing": [3.0, 3.0], "ProtocolName": "cmrr_mbep2d_bold_Pictures_AP", "RepetitionTime": 610.0, "Rows": 384, "SAR": 0.31613204324154, "SamplesPerPixel": 1, "ScanOptions": "FS", "ScanningSequence": "EP", "SequenceName": "*epfid2d1_64", "SequenceVariant": "SK", "SeriesDescription": "cmrr_mbep2d_bold_Pictures_AP", "SeriesNumber": 8, "SeriesTime": "153231.988000", "SliceLocation": -111.52584538511, "SliceThickness": 3.0, "SmallestImagePixelValue": 0, "SoftwareVersions": "syngo MR E11", "SpacingBetweenSlices": 3.299999913584, "SpecificCharacterSet": "ISO_IR 100", "StudyID": "2", "StudyTime": "151524.554000", "TransmitCoilName": "Body", "VariableFlipAngleFlag": "N", "WindowCenterWidthExplanation": "Algo1"}, "slices": {}}, "time": {"samples": {"AcquisitionNumber": [1, 2, 3, 4, 5, 6, 7, 8, 9, 10, 11, 12, 13, 14, 15, 16, 17, 18, 19, 20, 21, 22, 23, 24, 25, 26, 27, 28, 29, 30, 31, 32, 33, 34, 35, 36, 37, 38, 39, 40, 41, 42, 43, 44, 45, 46, 47, 48, 49, 50, 51, 52, 53, 54, 55, 56, 57, 58, 59, 60, 61, 62, 63, 64, 65, 66, 67, 68, 69, 70, 71, 72, 73, 74, 75, 76, 77, 78, 79, 80, 81, 82, 83, 84, 85, 86, 87, 88, 89, 90, 91, 92, 93, 94, 95, 96, 97, 98, 99, 100, 101, 102, 103, 104, 105, 106, 107, 108, 109, 110, 111, 112, 113, 114, 115, 116, 117, 118, 119, 120, 121, 122, 123, 124, 125, 126, 127, 128, 129, 130, 131, 132, 133, 134, 135, 136, 137, 138, 139, 140, 141, 142, 143, 144, 145, 146, 147, 148, 149, 150, 151, 152, 153, 154, 155, 156, 157, 158, 159, 160, 161, 162, 163, 164, 165, 166, 167, 168, 169, 170, 171, 172, 173, 174, 175, 176, 177, 178, 179, 180, 181, 182, 183, 184, 185, 186, 187, 188, 189, 190, 191, 192, 193, 194, 195, 196, 197, 198, 199, 200, 201, 202, 203, 204, 205, 206, 207, 208, 209, 210, 211, 212, 213, 214, 215, 216, 217, 218, 219, 220, 221, 222, 223, 224, 225, 226, 227, 228, 229, 230, 231, 232, 233, 234, 235, 236, 237, 238, 239, 240, 241, 242, 243, 244, 245, 246, 247, 248, 249, 250, 251, 252, 253, 254, 255, 256, 257, 258, 259, 260, 261, 262, 263, 264, 265, 266, 267, 268, 269, 270, 271, 272, 273, 274, 275, 276, 277, 278, 279, 280, 281, 282, 283, 284, 285, 286, 287, 288, 289, 290, 291, 292, 293, 294, 295, 296, 297, 298, 299, 300, 301, 302, 303, 304, 305, 306, 307, 308, 309, 310, 311, 312, 313, 314, 315, 316, 317, 318, 319, 320, 321, 322, 323, 324, 325, 326, 327, 328, 329, 330, 331, 332, 333, 334, 335, 336, 337, 338, 339, 340, 341, 342, 343, 344, 345, 346, 347, 348, 349, 350, 351, 352, 353, 354, 355, 356, 357, 358, 359, 360, 361, 362, 363, 364, 365, 366, 367, 368, 369, 370, 371, 372, 373, 374, 375, 376, 377, 378, 379, 380, 381, 382, 383, 384, 385, 386, 387, 388, 389, 390, 391, 392, 393, 394, 395, 396, 397, 398, 399, 400, 401, 402, 403, 404, 405, 406, 407, 408, 409, 410, 411, 412, 413, 414, 415, 416, 417, 418, 419, 420, 421, 422, 423, 424, 425, 426, 427, 428, 429, 430, 431, 432, 433, 434, 435, 436, 437, 438, 439, 440, 441, 442, 443, 444, 445, 446, 447, 448, 449, 450, 451, 452, 453, 454, 455, 456, 457, 458, 459, 460, 461, 462, 463, 464, 465, 466, 467, 468, 469, 470, 471, 472, 473, 474, 475, 476, 477, 478, 479, 480, 481, 482, 483, 484, 485, 486, 487, 488, 489, 490, 491, 492, 493, 494, 495, 496, 497, 498, 499, 500, 501, 502, 503, 504, 505, 506, 507, 508, 509, 510], "AcquisitionTime": ["153205.705000", "153206.315000", "153206.925000", "153207.535000", "153208.145000", "153208.755000", "153209.365000", "153209.975000", "153210.585000", "153211.195000", "153211.805000", "153212.415000", "153213.025000", "153213.635000", "153214.245000", "153214.855000", "153215.465000", "153216.075000", "153216.685000", "153217.295000", "153217.905000", "153218.515000", "153219.125000", "153219.735000", "153220.345000", "153220.955000", "153221.565000", "153222.175000", "153222.785000", "153223.395000", "153224.005000", "153224.615000", "153225.225000", "153225.835000", "153226.445000", "153227.055000", "153227.665000", "153228.275000", "153228.885000", "153229.495000", "153230.105000", "153230.715000", "153231.325000", "153231.935000", "153232.545000", "153233.155000", "153233.765000", "153234.375000", "153234.985000", "153235.595000", "153236.205000", "153236.815000", "153237.425000", "153238.035000", "153238.645000", "153239.255000", "153239.865000", "153240.475000", "153241.085000", "153241.695000", "153242.305000", "153242.915000", "153243.525000", "153244.135000", "153244.745000", "153245.355000", "153245.965000", "153246.575000", "153247.185000", "153247.795000", "153248.405000", "153249.015000", "153249.625000", "153250.235000", "153250.845000", "153251.455000", "153252.065000", "153252.675000", "153253.285000", "153253.895000", "153254.505000", "153255.115000", "153255.725000", "153256.335000", "153256.945000", "153257.555000", "153258.165000", "153258.775000", "153259.385000", "153259.995000", "153300.605000", "153301.215000", "153301.825000", "153302.435000", "153303.045000", "153303.655000", "153304.265000", "153304.875000", "153305.485000", "153306.095000", "153306.705000", "153307.315000", "153307.925000", "153308.535000", "153309.145000", "153309.755000", "153310.365000", "153310.975000", "153311.585000", "153312.195000", "153312.805000", "153313.415000", "153314.025000", "153314.635000", "153315.245000", "153315.855000", "153316.465000", "153317.075000", "153317.685000", "153318.295000", "153318.905000", "153319.515000", "153320.125000", "153320.735000", "153321.345000", "153321.955000", "153322.565000", "153323.175000", "153323.785000", "153324.395000", "153325.005000", "153325.615000", "153326.225000", "153326.835000", "153327.445000", "153328.055000", "153328.665000", "153329.275000", "153329.885000", "153330.495000", "153331.105000", "153331.715000", "153332.325000", "153332.935000", "153333.545000", "153334.155000", "153334.765000", "153335.375000", "153335.985000", "153336.595000", "153337.205000", "153337.815000", "153338.425000", "153339.035000", "153339.645000", "153340.255000", "153340.865000", "153341.475000", "153342.085000", "153342.695000", "153343.305000", "153343.915000", "153344.525000", "153345.135000", "153345.745000", "153346.355000", "153346.965000", "153347.575000", "153348.185000", "153348.795000", "153349.405000", "153350.015000", "153350.625000", "153351.235000", "153351.845000", "153352.455000", "153353.065000", "153353.675000", "153354.285000", "153354.895000", "153355.505000", "153356.115000", "153356.725000", "153357.335000", "153357.945000", "153358.555000", "153359.165000", "153359.775000", "153400.385000", "153400.995000", "153401.605000", "153402.215000", "153402.825000", "153403.435000", "153404.045000", "153404.655000", "153405.265000", "153405.875000", "153406.485000", "153407.095000", "153407.705000", "153408.315000", "153408.925000", "153409.535000", "153410.145000", "153410.755000", "153411.365000", "153411.975000", "153412.585000", "153413.195000", "153413.805000", "153414.415000", "153415.025000", "153415.635000", "153416.245000", "153416.855000", "153417.465000", "153418.075000", "153418.685000", "153419.295000", "153419.905000", "153420.515000", "153421.125000", "153421.735000", "153422.345000", "153422.955000", "153423.565000", "153424.175000", "153424.785000", "153425.395000", "153426.005000", "153426.615000", "153427.225000", "153427.835000", "153428.445000", "153429.055000", "153429.665000", "153430.275000", "153430.885000", "153431.495000", "153432.105000", "153432.715000", "153433.325000", "153433.935000", "153434.545000", "153435.155000", "153435.765000", "153436.375000", "153436.985000", "153437.595000", "153438.205000", "153438.815000", "153439.425000", "153440.035000", "153440.645000", "153441.255000", "153441.865000", "153442.475000", "153443.085000", "153443.695000", "153444.305000", "153444.915000", "153445.525000", "153446.135000", "153446.745000", "153447.355000", "153447.965000", "153448.575000", "153449.185000", "153449.795000", "153450.405000", "153451.015000", "153451.625000", "153452.235000", "153452.845000", "153453.455000", "153454.065000", "153454.675000", "153455.285000", "153455.895000", "153456.505000", "153457.115000", "153457.725000", "153458.335000", "153458.945000", "153459.555000", "153500.165000", "153500.775000", "153501.385000", "153501.995000", "153502.605000", "153503.215000", "153503.825000", "153504.435000", "153505.045000", "153505.655000", "153506.265000", "153506.875000", "153507.485000", "153508.095000", "153508.705000", "153509.315000", "153509.925000", "153510.535000", "153511.145000", "153511.755000", "153512.365000", "153512.975000", "153513.585000", "153514.195000", "153514.805000", "153515.415000", "153516.025000", "153516.635000", "153517.245000", "153517.855000", "153518.465000", "153519.075000", "153519.685000", "153520.295000", "153520.905000", "153521.515000", "153522.125000", "153522.735000", "153523.345000", "153523.955000", "153524.565000", "153525.175000", "153525.785000", "153526.395000", "153527.005000", "153527.615000", "153528.225000", "153528.835000", "153529.445000", "153530.055000", "153530.665000", "153531.275000", "153531.885000", "153532.495000", "153533.105000", "153533.715000", "153534.325000", "153534.935000", "153535.545000", "153536.155000", "153536.765000", "153537.375000", "153537.985000", "153538.595000", "153539.205000", "153539.815000", "153540.425000", "153541.035000", "153541.645000", "153542.255000", "153542.865000", "153543.475000", "153544.085000", "153544.695000", "153545.305000", "153545.915000", "153546.525000", "153547.135000", "153547.745000", "153548.355000", "153548.965000", "153549.575000", "153550.185000", "153550.795000", "153551.405000", "153552.015000", "153552.625000", "153553.235000", "153553.845000", "153554.455000", "153555.065000", "153555.675000", "153556.285000", "153556.895000", "153557.505000", "153558.115000", "153558.725000", "153559.335000", "153559.945000", "153600.555000", "153601.165000", "153601.775000", "153602.385000", "153602.995000", "153603.605000", "153604.215000", "153604.825000", "153605.435000", "153606.045000", "153606.655000", "153607.265000", "153607.875000", "153608.485000", "153609.095000", "153609.705000", "153610.315000", "153610.925000", "153611.535000", "153612.145000", "153612.755000", "153613.365000", "153613.975000", "153614.585000", "153615.195000", "153615.805000", "153616.415000", "153617.025000", "153617.635000", "153618.245000", "153618.855000", "153619.465000", "153620.075000", "153620.685000", "153621.295000", "153621.905000", "153622.515000", "153623.125000", "153623.735000", "153624.345000", "153624.955000", "153625.565000", "153626.175000", "153626.785000", "153627.395000", "153628.005000", "153628.615000", "153629.225000", "153629.835000", "153630.445000", "153631.055000", "153631.665000", "153632.275000", "153632.885000", "153633.495000", "153634.105000", "153634.715000", "153635.325000", "153635.935000", "153636.545000", "153637.155000", "153637.765000", "153638.375000", "153638.985000", "153639.595000", "153640.205000", "153640.815000", "153641.425000", "153642.035000", "153642.645000", "153643.255000", "153643.865000", "153644.475000", "153645.085000", "153645.695000", "153646.305000", "153646.915000", "153647.525000", "153648.135000", "153648.745000", "153649.355000", "153649.965000", "153650.575000", "153651.185000", "153651.795000", "153652.405000", "153653.015000", "153653.625000", "153654.235000", "153654.845000", "153655.455000", "153656.065000", "153656.675000", "153657.285000", "153657.895000", "153658.505000", "153659.115000", "153659.725000", "153700.335000", "153700.945000", "153701.555000", "153702.165000", "153702.775000", "153703.385000", "153703.995000", "153704.605000", "153705.215000", "153705.825000", "153706.435000", "153707.045000", "153707.655000", "153708.265000", "153708.875000", "153709.485000", "153710.095000", "153710.705000", "153711.315000", "153711.925000", "153712.535000", "153713.145000", "153713.755000", "153714.365000", "153714.975000", "153715.585000", "153716.195000"], "ContentTime": ["153231.991000", "153231.994000", "153231.997000", "153232.001000", "153232.004000", "153232.006000", "153232.009000", "153232.011000", "153232.013000", "153232.016000", "153232.019000", "153232.022000", "153232.024000", "153232.026000", "153232.029000", "153232.031000", "153232.034000", "153232.036000", "153232.038000", "153232.041000", "153232.043000", "153232.046000", "153232.048000", "153232.051000", "153232.053000", "153232.056000", "153232.058000", "153232.060000", "153232.063000", "153232.065000", "153232.067000", "153232.070000", "153232.072000", "153232.074000", "153232.077000", "153232.079000", "153232.082000", "153232.084000", "153232.087000", "153232.089000", "153232.091000", "153232.094000", "153251.986000", "153251.989000", "153251.991000", "153251.994000", "153251.996000", "153251.998000", "153252.001000", "153252.003000", "153252.005000", "153252.008000", "153252.010000", "153252.013000", "153252.015000", "153252.017000", "153252.020000", "153252.022000", "153252.025000", "153252.027000", "153252.029000", "153252.032000", "153252.034000", "153252.037000", "153252.039000", "153252.041000", "153252.044000", "153252.046000", "153252.049000", "153252.051000", "153252.053000", "153252.056000", "153252.058000", "153252.060000", "153252.063000", "153311.986000", "153311.989000", "153311.991000", "153311.994000", "153311.996000", "153312.000000", "153312.002000", "153312.005000", "153312.013000", "153312.015000", "153312.017000", "153312.020000", "153312.022000", "153312.025000", "153312.027000", "153312.029000", "153312.032000", "153312.034000", "153312.036000", "153312.039000", "153312.041000", "153312.043000", "153312.046000", "153312.048000", "153312.051000", "153312.053000", "153312.055000", "153312.058000", "153312.060000", "153312.063000", "153312.065000", "153312.068000", "153331.986000", "153331.989000", "153331.991000", "153331.993000", "153331.996000", "153331.998000", "153332.001000", "153332.003000", "153332.005000", "153332.008000", "153332.021000", "153332.023000", "153332.025000", "153332.028000", "153332.030000", "153332.033000", "153332.035000", "153332.038000", "153332.040000", "153332.042000", "153332.045000", "153332.047000", "153332.050000", "153332.052000", "153332.054000", "153332.057000", "153332.059000", "153332.061000", "153332.064000", "153332.066000", "153332.069000", "153332.071000", "153332.074000", "153351.986000", "153351.989000", "153351.992000", "153351.994000", "153351.996000", "153351.999000", "153352.001000", "153352.003000", "153352.006000", "153352.008000", "153352.011000", "153352.013000", "153352.015000", "153352.018000", "153352.020000", "153352.026000", "153352.028000", "153352.031000", "153352.033000", "153352.035000", "153352.038000", "153352.040000", "153352.043000", "153352.045000", "153352.048000", "153352.050000", "153352.052000", "153352.055000", "153352.057000", "153352.060000", "153352.062000", "153352.064000", "153352.067000", "153411.986000", "153411.989000", "153411.991000", "153411.994000", "153411.996000", "153411.998000", "153412.001000", "153412.003000", "153412.006000", "153412.008000", "153412.010000", "153412.013000", "153412.015000", "153412.017000", "153412.020000", "153412.022000", "153412.025000", "153412.027000", "153412.030000", "153412.033000", "153412.035000", "153412.038000", "153412.040000", "153412.043000", "153412.045000", "153412.047000", "153412.050000", "153412.052000", "153412.055000", "153412.057000", "153412.059000", "153412.062000", "153412.064000", "153431.986000", "153431.989000", "153431.992000", "153431.994000", "153431.996000", "153432.000000", "153432.002000", "153432.005000", "153432.007000", "153432.009000", "153432.012000", "153432.014000", "153432.017000", "153432.019000", "153432.021000", "153432.024000", "153432.026000", "153432.029000", "153432.031000", "153432.034000", "153432.036000", "153432.039000", "153432.041000", "153432.043000", "153432.046000", "153432.048000", "153432.051000", "153432.053000", "153432.055000", "153432.058000", "153432.060000", "153432.063000", "153451.986000", "153451.989000", "153451.991000", "153451.995000", "153451.997000", "153451.999000", "153452.002000", "153452.004000", "153452.007000", "153452.009000", "153452.011000", "153452.014000", "153452.016000", "153452.019000", "153452.021000", "153452.023000", "153452.026000", "153452.028000", "153452.031000", "153452.033000", "153452.036000", "153452.038000", "153452.040000", "153452.043000", "153452.045000", "153452.048000", "153452.051000", "153452.053000", "153452.055000", "153452.058000", "153452.060000", "153452.063000", "153452.065000", "153511.986000", "153511.989000", "153511.991000", "153511.994000", "153511.996000", "153511.999000", "153512.001000", "153512.004000", "153512.006000", "153512.008000", "153512.011000", "153512.013000", "153512.016000", "153512.018000", "153512.021000", "153512.023000", "153512.025000", "153512.028000", "153512.030000", "153512.033000", "153512.035000", "153512.038000", "153512.040000", "153512.042000", "153512.045000", "153512.047000", "153512.050000", "153512.052000", "153512.055000", "153512.057000", "153512.060000", "153512.062000", "153512.065000", "153531.986000", "153531.989000", "153531.991000", "153531.994000", "153531.996000", "153531.999000", "153532.001000", "153532.004000", "153532.006000", "153532.008000", "153532.011000", "153532.013000", "153532.016000", "153532.018000", "153532.020000", "153532.023000", "153532.025000", "153532.028000", "153532.030000", "153532.032000", "153532.035000", "153532.037000", "153532.040000", "153532.042000", "153532.045000", "153532.047000", "153532.049000", "153532.052000", "153532.054000", "153532.057000", "153532.059000", "153532.061000", "153532.064000", "153551.986000", "153551.989000", "153551.991000", "153551.994000", "153551.996000", "153552.000000", "153552.002000", "153552.005000", "153552.007000", "153552.010000", "153552.012000", "153552.015000", "153552.017000", "153552.019000", "153552.022000", "153552.024000", "153552.027000", "153552.029000", "153552.032000", "153552.035000", "153552.037000", "153552.039000", "153552.042000", "153552.044000", "153552.047000", "153552.049000", "153552.052000", "153552.054000", "153552.057000", "153552.059000", "153552.062000", "153552.064000", "153552.067000", "153611.986000", "153611.989000", "153611.991000", "153611.994000", "153611.996000", "153612.000000", "153612.002000", "153612.005000", "153612.007000", "153612.009000", "153612.012000", "153612.014000", "153612.017000", "153612.019000", "153612.022000", "153612.024000", "153612.027000", "153612.029000", "153612.031000", "153612.034000", "153612.036000", "153612.039000", "153612.041000", "153612.057000", "153612.060000", "153612.062000", "153612.065000", "153612.067000", "153612.070000", "153612.072000", "153612.075000", "153612.077000", "153631.987000", "153631.989000", "153631.992000", "153631.994000", "153631.996000", "153632.000000", "153632.002000", "153632.005000", "153632.007000", "153632.010000", "153632.012000", "153632.015000", "153632.017000", "153632.019000", "153632.022000", "153632.024000", "153632.027000", "153632.029000", "153632.036000", "153632.038000", "153632.041000", "153632.043000", "153632.046000", "153632.048000", "153632.051000", "153632.053000", "153632.055000", "153632.058000", "153632.060000", "153632.063000", "153632.065000", "153632.068000", "153632.070000", "153652.006000", "153652.009000", "153652.011000", "153652.014000", "153652.016000", "153652.019000", "153652.021000", "153652.024000", "153652.026000", "153652.029000", "153652.031000", "153652.033000", "153652.036000", "153652.038000", "153652.041000", "153652.043000", "153652.045000", "153652.048000", "153652.050000", "153652.053000", "153652.055000", "153652.058000", "153652.060000", "153652.062000", "153652.065000", "153652.067000", "153652.070000", "153652.072000", "153652.074000", "153652.077000", "153652.079000", "153652.082000", "153652.084000", "153711.986000", "153711.989000", "153711.991000", "153711.994000", "153711.996000", "153711.999000", "153712.001000", "153712.003000", "153712.006000", "153712.008000", "153712.011000", "153712.013000", "153712.016000", "153712.018000", "153712.021000", "153712.023000", "153712.025000", "153712.028000", "153712.030000", "153712.033000", "153712.035000", "153712.037000", "153712.040000", "153712.042000", "153712.045000", "153712.047000", "153712.050000", "153712.052000", "153712.054000", "153712.057000", "153712.059000", "153712.062000", "153712.064000", "153717.304000", "153717.307000", "153717.309000", "153717.312000", "153717.314000", "153717.317000", "153717.319000", "153717.322000", "153717.324000"], "InstanceCreationTime": ["153231.991000", "153231.994000", "153231.997000", "153232.001000", "153232.004000", "153232.006000", "153232.009000", "153232.011000", "153232.013000", "153232.016000", "153232.019000", "153232.022000", "153232.024000", "153232.026000", "153232.029000", "153232.031000", "153232.034000", "153232.036000", "153232.038000", "153232.041000", "153232.043000", "153232.046000", "153232.048000", "153232.051000", "153232.053000", "153232.056000", "153232.058000", "153232.060000", "153232.063000", "153232.065000", "153232.067000", "153232.070000", "153232.072000", "153232.074000", "153232.077000", "153232.079000", "153232.082000", "153232.084000", "153232.087000", "153232.089000", "153232.091000", "153232.094000", "153251.986000", "153251.989000", "153251.991000", "153251.994000", "153251.996000", "153251.998000", "153252.001000", "153252.003000", "153252.005000", "153252.008000", "153252.010000", "153252.013000", "153252.015000", "153252.017000", "153252.020000", "153252.022000", "153252.025000", "153252.027000", "153252.029000", "153252.032000", "153252.034000", "153252.037000", "153252.039000", "153252.041000", "153252.044000", "153252.046000", "153252.049000", "153252.051000", "153252.053000", "153252.056000", "153252.058000", "153252.060000", "153252.063000", "153311.986000", "153311.989000", "153311.991000", "153311.994000", "153311.996000", "153312.000000", "153312.002000", "153312.005000", "153312.013000", "153312.015000", "153312.017000", "153312.020000", "153312.022000", "153312.025000", "153312.027000", "153312.029000", "153312.032000", "153312.034000", "153312.036000", "153312.039000", "153312.041000", "153312.043000", "153312.046000", "153312.048000", "153312.051000", "153312.053000", "153312.055000", "153312.058000", "153312.060000", "153312.063000", "153312.065000", "153312.068000", "153331.986000", "153331.989000", "153331.991000", "153331.993000", "153331.996000", "153331.998000", "153332.001000", "153332.003000", "153332.005000", "153332.008000", "153332.021000", "153332.023000", "153332.025000", "153332.028000", "153332.030000", "153332.033000", "153332.035000", "153332.038000", "153332.040000", "153332.042000", "153332.045000", "153332.047000", "153332.050000", "153332.052000", "153332.054000", "153332.057000", "153332.059000", "153332.061000", "153332.064000", "153332.066000", "153332.069000", "153332.071000", "153332.074000", "153351.986000", "153351.989000", "153351.992000", "153351.994000", "153351.996000", "153351.999000", "153352.001000", "153352.003000", "153352.006000", "153352.008000", "153352.011000", "153352.013000", "153352.015000", "153352.018000", "153352.020000", "153352.026000", "153352.028000", "153352.031000", "153352.033000", "153352.035000", "153352.038000", "153352.040000", "153352.043000", "153352.045000", "153352.048000", "153352.050000", "153352.052000", "153352.055000", "153352.057000", "153352.060000", "153352.062000", "153352.064000", "153352.067000", "153411.986000", "153411.989000", "153411.991000", "153411.994000", "153411.996000", "153411.998000", "153412.001000", "153412.003000", "153412.006000", "153412.008000", "153412.010000", "153412.013000", "153412.015000", "153412.017000", "153412.020000", "153412.022000", "153412.025000", "153412.027000", "153412.030000", "153412.033000", "153412.035000", "153412.038000", "153412.040000", "153412.043000", "153412.045000", "153412.047000", "153412.050000", "153412.052000", "153412.055000", "153412.057000", "153412.059000", "153412.062000", "153412.064000", "153431.986000", "153431.989000", "153431.992000", "153431.994000", "153431.996000", "153432.000000", "153432.002000", "153432.005000", "153432.007000", "153432.009000", "153432.012000", "153432.014000", "153432.017000", "153432.019000", "153432.021000", "153432.024000", "153432.026000", "153432.029000", "153432.031000", "153432.034000", "153432.036000", "153432.039000", "153432.041000", "153432.043000", "153432.046000", "153432.048000", "153432.051000", "153432.053000", "153432.055000", "153432.058000", "153432.060000", "153432.063000", "153451.986000", "153451.989000", "153451.991000", "153451.995000", "153451.997000", "153451.999000", "153452.002000", "153452.004000", "153452.007000", "153452.009000", "153452.011000", "153452.014000", "153452.016000", "153452.019000", "153452.021000", "153452.023000", "153452.026000", "153452.028000", "153452.031000", "153452.033000", "153452.036000", "153452.038000", "153452.040000", "153452.043000", "153452.045000", "153452.048000", "153452.051000", "153452.053000", "153452.055000", "153452.058000", "153452.060000", "153452.063000", "153452.065000", "153511.986000", "153511.989000", "153511.991000", "153511.994000", "153511.996000", "153511.999000", "153512.001000", "153512.004000", "153512.006000", "153512.008000", "153512.011000", "153512.013000", "153512.016000", "153512.018000", "153512.021000", "153512.023000", "153512.025000", "153512.028000", "153512.030000", "153512.033000", "153512.035000", "153512.038000", "153512.040000", "153512.042000", "153512.045000", "153512.047000", "153512.050000", "153512.052000", "153512.055000", "153512.057000", "153512.060000", "153512.062000", "153512.065000", "153531.986000", "153531.989000", "153531.991000", "153531.994000", "153531.996000", "153531.999000", "153532.001000", "153532.004000", "153532.006000", "153532.008000", "153532.011000", "153532.013000", "153532.016000", "153532.018000", "153532.020000", "153532.023