{"AcquisitionMatrixPE": 64, "AcquisitionNumber": 1, "AcquisitionTime": "11:14:46.662500", "BandwidthPerPixelPhaseEncode": 28.935, "BaseResolution": 64, "BodyPartExamined": "BRAIN", "CoilCombinationMethod": "Sum of Squares", "ConsistencyInfo": "N4_VE11E_LATEST_20181129", "ConversionSoftware": "dcm2niix", "ConversionSoftwareVersion": "v1.0.20230411", "DerivedVendorReportedEchoSpacing": 0.000540003, "DeviceSerialNumber": "166182", "DwellTime": 3.4e-06, "EchoTime": 0.032, "EchoTrainLength": 64, "EffectiveEchoSpacing": 0.000540003, "FlipAngle": 40, "HeudiconvVersion": "0.13.1", "ImageOrientationPatientDICOM": [0.997207, 0.0590168, -0.0457707, -0.059245, 0.998237, -0.00364553], "ImageOrientationText": "Tra>Sag(-2.6)>Cor(-0.4)", "ImageType": ["ORIGINAL", "PRIMARY", "M", "ND", "NORM", "MOSAIC"], "ImagingFrequency": 123.25626, "InPlanePhaseEncodingDirectionDICOM": "COL", "InstitutionAddress": "PEARSE STREET .,City,District,IE,D2", "InstitutionName": "TCIN", "InstitutionalDepartmentName": "MRI", "MRAcquisitionType": "2D", "MagneticFieldStrength": 3, "Manufacturer": "Siemens", "ManufacturersModelName": "Prisma", "Modality": "MR", "MultibandAccelerationFactor": 4, "NonlinearGradientCorrection": false, "PartialFourier": 1, "PatientPosition": "HFS", "PercentPhaseFOV": 100, "PercentSampling": 100, "PhaseEncodingDirection": "j-", "PhaseEncodingSteps": 64, "PhaseResolution": 1, "PixelBandwidth": 2300, "ProcedureStepDescription": "Rhodri^Head BOLD", "ProtocolName": "cmrr_mbep2d_Pictures_AP_RDS", "PulseSequenceDetails": "%SiemensSeq%\\ep2d_bold", "ReceiveCoilActiveElements": "HC2,4,6,7", "ReceiveCoilName": "HeadNeck_64", "ReconMatrixPE": 64, "RefLinesPE": 12, "RepetitionTime": 0.61, "SAR": 0.28012, "ScanOptions": "FS", "ScanningSequence": "EP", "SequenceName": "*epfid2d1_64", "SequenceVariant": "SK", "SeriesDescription": "cmrr_mbep2d_Pictures_AP_RDS", "SeriesNumber": 8, "ShimSetting": [-3662, -7560, 3730, 1065, 69, 504, 242, 18], "SliceThickness": 3, "SliceTiming": [0.2625, 0, 0.3275, 0.065, 0.395, 0.1325, 0.46, 0.1975, 0.525, 0.2625, 0, 0.3275, 0.065, 0.395, 0.1325, 0.46, 0.1975, 0.525, 0.2625, 0, 0.3275, 0.065, 0.395, 0.1325, 0.46, 0.1975, 0.525, 0.2625, 0, 0.3275, 0.065, 0.395, 0.1325, 0.46, 0.1975, 0.525], "SoftwareVersions": "syngo MR E11", "SpacingBetweenSlices": 3.3, "StationName": "AWP166182", "TaskName": "pictures", "TotalReadoutTime": 0.0340202, "TxRefAmp": 273.567, "dcmmeta_affine": [[-2.991621494293213, -0.17773506045341492, -0.1500670313835144, 106.55408477783203], [-0.17705026268959045, 2.9947104454040527, -0.020945221185684204, -88.2959976196289], [-0.1373121291399002, 0.010936595499515533, 3.2965195178985596, -110.37982940673828], [0.0, 0.0, 0.0, 1.0]], "dcmmeta_reorient_transform": [[0.0, -1.0, 0.0, 63.0], [1.0, 0.0, 0.0, 0.0], [0.0, 0.0, 1.0, 0.0], [0.0, 0.0, 0.0, 1.0]], "dcmmeta_shape": [64, 64, 36, 510], "dcmmeta_slice_dim": 2, "dcmmeta_version": 0.6, "global": {"const": {"AcquisitionMatrix": [64, 0, 0, 64], "AngioFlag": "N", "BitsAllocated": 16, "BitsStored": 12, "BodyPartExamined": "BRAIN", "Columns": 384, "EchoNumbers": 1, "EchoTime": 32.0, "EchoTrainLength": 64, "FlipAngle": 40.0, "HighBit": 11, "ImageOrientationPatient": [0.99720713219131, 0.05901675605012, -0.0457707112913, -0.0592450206501, 0.99823681440133, -0.0036455317949], "ImagePositionPatient": [-545.57859137075, -607.85247293135, -85.971027917898], "ImageType": ["ORIGINAL", "PRIMARY", "M", "ND", "NORM", "MOSAIC"], "ImagedNucleus": "1H", "ImagingFrequency": 123.25626, "InPlanePhaseEncodingDirection": "COL", "MRAcquisitionType": "2D", "MagneticFieldStrength": 3.0, "Manufacturer": "SIEMENS", "ManufacturerModelName": "Prisma", "Modality": "MR", "NumberOfAverages": 1.0, "NumberOfPhaseEncodingSteps": 64, "PercentPhaseFieldOfView": 100.0, "PercentSampling": 100.0, "PerformedProcedureStepStartTime": "105533.975000", "PhotometricInterpretation": "MONOCHROME2", "PixelBandwidth": 2300.0, "PixelRepresentation": 0, "PixelSpacing": [3.0, 3.0], "ProtocolName": "cmrr_mbep2d_Pictures_AP_RDS", "RepetitionTime": 610.0, "Rows": 384, "SAR": 0.28012021330397, "SamplesPerPixel": 1, "ScanOptions": "FS", "ScanningSequence": "EP", "SequenceName": "*epfid2d1_64", "SequenceVariant": "SK", "SeriesDescription": "cmrr_mbep2d_Pictures_AP_RDS", "SeriesNumber": 8, "SeriesTime": "111506.988000", "SliceLocation": -114.54852906372, "SliceThickness": 3.0, "SmallestImagePixelValue": 0, "SoftwareVersions": "syngo MR E11", "SpacingBetweenSlices": 3.2999998947542, "SpecificCharacterSet": "ISO_IR 100", "StudyID": "2", "StudyTime": "105533.916000", "TransmitCoilName": "Body", "VariableFlipAngleFlag": "N", "WindowCenterWidthExplanation": "Algo1"}, "slices": {}}, "time": {"samples": {"AcquisitionNumber": [1, 2, 3, 4, 5, 6, 7, 8, 9, 10, 11, 12, 13, 14, 15, 16, 17, 18, 19, 20, 21, 22, 23, 24, 25, 26, 27, 28, 29, 30, 31, 32, 33, 34, 35, 36, 37, 38, 39, 40, 41, 42, 43, 44, 45, 46, 47, 48, 49, 50, 51, 52, 53, 54, 55, 56, 57, 58, 59, 60, 61, 62, 63, 64, 65, 66, 67, 68, 69, 70, 71, 72, 73, 74, 75, 76, 77, 78, 79, 80, 81, 82, 83, 84, 85, 86, 87, 88, 89, 90, 91, 92, 93, 94, 95, 96, 97, 98, 99, 100, 101, 102, 103, 104, 105, 106, 107, 108, 109, 110, 111, 112, 113, 114, 115, 116, 117, 118, 119, 120, 121, 122, 123, 124, 125, 126, 127, 128, 129, 130, 131, 132, 133, 134, 135, 136, 137, 138, 139, 140, 141, 142, 143, 144, 145, 146, 147, 148, 149, 150, 151, 152, 153, 154, 155, 156, 157, 158, 159, 160, 161, 162, 163, 164, 165, 166, 167, 168, 169, 170, 171, 172, 173, 174, 175, 176, 177, 178, 179, 180, 181, 182, 183, 184, 185, 186, 187, 188, 189, 190, 191, 192, 193, 194, 195, 196, 197, 198, 199, 200, 201, 202, 203, 204, 205, 206, 207, 208, 209, 210, 211, 212, 213, 214, 215, 216, 217, 218, 219, 220, 221, 222, 223, 224, 225, 226, 227, 228, 229, 230, 231, 232, 233, 234, 235, 236, 237, 238, 239, 240, 241, 242, 243, 244, 245, 246, 247, 248, 249, 250, 251, 252, 253, 254, 255, 256, 257, 258, 259, 260, 261, 262, 263, 264, 265, 266, 267, 268, 269, 270, 271, 272, 273, 274, 275, 276, 277, 278, 279, 280, 281, 282, 283, 284, 285, 286, 287, 288, 289, 290, 291, 292, 293, 294, 295, 296, 297, 298, 299, 300, 301, 302, 303, 304, 305, 306, 307, 308, 309, 310, 311, 312, 313, 314, 315, 316, 317, 318, 319, 320, 321, 322, 323, 324, 325, 326, 327, 328, 329, 330, 331, 332, 333, 334, 335, 336, 337, 338, 339, 340, 341, 342, 343, 344, 345, 346, 347, 348, 349, 350, 351, 352, 353, 354, 355, 356, 357, 358, 359, 360, 361, 362, 363, 364, 365, 366, 367, 368, 369, 370, 371, 372, 373, 374, 375, 376, 377, 378, 379, 380, 381, 382, 383, 384, 385, 386, 387, 388, 389, 390, 391, 392, 393, 394, 395, 396, 397, 398, 399, 400, 401, 402, 403, 404, 405, 406, 407, 408, 409, 410, 411, 412, 413, 414, 415, 416, 417, 418, 419, 420, 421, 422, 423, 424, 425, 426, 427, 428, 429, 430, 431, 432, 433, 434, 435, 436, 437, 438, 439, 440, 441, 442, 443, 444, 445, 446, 447, 448, 449, 450, 451, 452, 453, 454, 455, 456, 457, 458, 459, 460, 461, 462, 463, 464, 465, 466, 467, 468, 469, 470, 471, 472, 473, 474, 475, 476, 477, 478, 479, 480, 481, 482, 483, 484, 485, 486, 487, 488, 489, 490, 491, 492, 493, 494, 495, 496, 497, 498, 499, 500, 501, 502, 503, 504, 505, 506, 507, 508, 509, 510], "AcquisitionTime": ["111446.662500", "111447.272500", "111447.882500", "111448.492500", "111449.102500", "111449.712500", "111450.322500", "111450.932500", "111451.542500", "111452.152500", "111452.762500", "111453.372500", "111453.982500", "111454.592500", "111455.202500", "111455.812500", "111456.422500", "111457.032500", "111457.642500", "111458.252500", "111458.862500", "111459.472500", "111500.082500", "111500.692500", "111501.302500", "111501.912500", "111502.522500", "111503.132500", "111503.742500", "111504.352500", "111504.962500", "111505.572500", "111506.182500", "111506.792500", "111507.402500", "111508.012500", "111508.622500", "111509.232500", "111509.842500", "111510.452500", "111511.062500", "111511.672500", "111512.282500", "111512.892500", "111513.502500", "111514.112500", "111514.722500", "111515.332500", "111515.942500", "111516.552500", "111517.162500", "111517.772500", "111518.382500", "111518.992500", "111519.602500", "111520.212500", "111520.822500", "111521.432500", "111522.042500", "111522.652500", "111523.262500", "111523.872500", "111524.482500", "111525.092500", "111525.702500", "111526.312500", "111526.922500", "111527.532500", "111528.142500", "111528.752500", "111529.362500", "111529.972500", "111530.582500", "111531.192500", "111531.802500", "111532.412500", "111533.022500", "111533.632500", "111534.242500", "111534.852500", "111535.462500", "111536.072500", "111536.682500", "111537.292500", "111537.902500", "111538.512500", "111539.122500", "111539.732500", "111540.342500", "111540.952500", "111541.562500", "111542.172500", "111542.782500", "111543.392500", "111544.002500", "111544.612500", "111545.222500", "111545.832500", "111546.442500", "111547.052500", "111547.662500", "111548.272500", "111548.882500", "111549.492500", "111550.102500", "111550.712500", "111551.322500", "111551.932500", "111552.542500", "111553.152500", "111553.762500", "111554.372500", "111554.982500", "111555.592500", "111556.202500", "111556.812500", "111557.422500", "111558.032500", "111558.642500", "111559.252500", "111559.862500", "111600.472500", "111601.082500", "111601.692500", "111602.302500", "111602.912500", "111603.522500", "111604.132500", "111604.742500", "111605.352500", "111605.962500", "111606.572500", "111607.182500", "111607.792500", "111608.402500", "111609.012500", "111609.622500", "111610.232500", "111610.842500", "111611.452500", "111612.062500", "111612.672500", "111613.282500", "111613.892500", "111614.502500", "111615.112500", "111615.722500", "111616.332500", "111616.942500", "111617.552500", "111618.162500", "111618.772500", "111619.382500", "111619.992500", "111620.602500", "111621.212500", "111621.822500", "111622.432500", "111623.042500", "111623.652500", "111624.262500", "111624.872500", "111625.482500", "111626.092500", "111626.702500", "111627.312500", "111627.922500", "111628.532500", "111629.142500", "111629.752500", "111630.362500", "111630.972500", "111631.582500", "111632.192500", "111632.802500", "111633.412500", "111634.022500", "111634.632500", "111635.242500", "111635.852500", "111636.462500", "111637.072500", "111637.682500", "111638.292500", "111638.902500", "111639.512500", "111640.122500", "111640.732500", "111641.342500", "111641.952500", "111642.562500", "111643.172500", "111643.782500", "111644.392500", "111645.002500", "111645.612500", "111646.222500", "111646.832500", "111647.442500", "111648.052500", "111648.662500", "111649.272500", "111649.882500", "111650.492500", "111651.102500", "111651.712500", "111652.322500", "111652.932500", "111653.542500", "111654.152500", "111654.762500", "111655.372500", "111655.982500", "111656.592500", "111657.202500", "111657.812500", "111658.422500", "111659.032500", "111659.642500", "111700.252500", "111700.862500", "111701.472500", "111702.082500", "111702.692500", "111703.302500", "111703.912500", "111704.522500", "111705.132500", "111705.742500", "111706.352500", "111706.962500", "111707.572500", "111708.182500", "111708.792500", "111709.402500", "111710.012500", "111710.622500", "111711.232500", "111711.842500", "111712.452500", "111713.062500", "111713.672500", "111714.282500", "111714.892500", "111715.502500", "111716.112500", "111716.722500", "111717.332500", "111717.942500", "111718.552500", "111719.162500", "111719.772500", "111720.382500", "111720.992500", "111721.602500", "111722.212500", "111722.822500", "111723.432500", "111724.042500", "111724.652500", "111725.262500", "111725.872500", "111726.482500", "111727.092500", "111727.702500", "111728.312500", "111728.922500", "111729.532500", "111730.142500", "111730.752500", "111731.362500", "111731.972500", "111732.582500", "111733.192500", "111733.802500", "111734.412500", "111735.022500", "111735.632500", "111736.242500", "111736.852500", "111737.462500", "111738.072500", "111738.682500", "111739.292500", "111739.902500", "111740.512500", "111741.122500", "111741.732500", "111742.342500", "111742.952500", "111743.562500", "111744.172500", "111744.782500", "111745.392500", "111746.002500", "111746.612500", "111747.222500", "111747.832500", "111748.442500", "111749.052500", "111749.662500", "111750.272500", "111750.882500", "111751.492500", "111752.102500", "111752.712500", "111753.322500", "111753.932500", "111754.542500", "111755.152500", "111755.762500", "111756.372500", "111756.982500", "111757.592500", "111758.202500", "111758.812500", "111759.422500", "111800.032500", "111800.642500", "111801.252500", "111801.862500", "111802.472500", "111803.082500", "111803.692500", "111804.302500", "111804.912500", "111805.522500", "111806.132500", "111806.742500", "111807.352500", "111807.962500", "111808.572500", "111809.182500", "111809.792500", "111810.402500", "111811.012500", "111811.622500", "111812.232500", "111812.842500", "111813.452500", "111814.062500", "111814.672500", "111815.282500", "111815.892500", "111816.502500", "111817.112500", "111817.722500", "111818.332500", "111818.942500", "111819.552500", "111820.162500", "111820.772500", "111821.382500", "111821.992500", "111822.602500", "111823.212500", "111823.822500", "111824.432500", "111825.042500", "111825.652500", "111826.262500", "111826.872500", "111827.482500", "111828.092500", "111828.702500", "111829.312500", "111829.922500", "111830.532500", "111831.142500", "111831.752500", "111832.362500", "111832.972500", "111833.582500", "111834.192500", "111834.802500", "111835.412500", "111836.022500", "111836.632500", "111837.242500", "111837.852500", "111838.462500", "111839.072500", "111839.682500", "111840.292500", "111840.902500", "111841.512500", "111842.122500", "111842.732500", "111843.342500", "111843.952500", "111844.562500", "111845.172500", "111845.782500", "111846.392500", "111847.002500", "111847.612500", "111848.222500", "111848.832500", "111849.442500", "111850.052500", "111850.662500", "111851.272500", "111851.882500", "111852.492500", "111853.102500", "111853.712500", "111854.322500", "111854.932500", "111855.542500", "111856.152500", "111856.762500", "111857.372500", "111857.982500", "111858.592500", "111859.202500", "111859.812500", "111900.422500", "111901.032500", "111901.642500", "111902.252500", "111902.862500", "111903.472500", "111904.082500", "111904.692500", "111905.302500", "111905.912500", "111906.522500", "111907.132500", "111907.742500", "111908.352500", "111908.962500", "111909.572500", "111910.182500", "111910.792500", "111911.402500", "111912.012500", "111912.622500", "111913.232500", "111913.842500", "111914.452500", "111915.062500", "111915.672500", "111916.282500", "111916.892500", "111917.502500", "111918.112500", "111918.722500", "111919.332500", "111919.942500", "111920.552500", "111921.162500", "111921.772500", "111922.382500", "111922.992500", "111923.602500", "111924.212500", "111924.822500", "111925.432500", "111926.042500", "111926.652500", "111927.262500", "111927.872500", "111928.482500", "111929.092500", "111929.702500", "111930.312500", "111930.922500", "111931.532500", "111932.142500", "111932.752500", "111933.362500", "111933.972500", "111934.582500", "111935.192500", "111935.802500", "111936.412500", "111937.022500", "111937.632500", "111938.242500", "111938.852500", "111939.462500", "111940.072500", "111940.682500", "111941.292500", "111941.902500", "111942.512500", "111943.122500", "111943.732500", "111944.342500", "111944.952500", "111945.562500", "111946.172500", "111946.782500", "111947.392500", "111948.002500", "111948.612500", "111949.222500", "111949.832500", "111950.442500", "111951.052500", "111951.662500", "111952.272500", "111952.882500", "111953.492500", "111954.102500", "111954.712500", "111955.322500", "111955.932500", "111956.542500", "111957.152500"], "ContentTime": ["111506.991000", "111506.994000", "111506.997000", "111507.000000", "111507.003000", "111507.005000", "111507.007000", "111507.010000", "111507.012000", "111507.014000", "111507.017000", "111507.019000", "111507.022000", "111507.024000", "111507.026000", "111507.029000", "111507.036000", "111507.038000", "111507.041000", "111507.043000", "111507.046000", "111507.048000", "111507.050000", "111507.053000", "111507.055000", "111507.057000", "111507.060000", "111507.062000", "111507.064000", "111507.067000", "111507.069000", "111507.071000", "111526.986000", "111526.989000", "111526.992000", "111526.995000", "111526.997000", "111527.001000", "111527.003000", "111527.006000", "111527.008000", "111527.011000", "111527.014000", "111527.016000", "111527.018000", "111527.021000", "111527.023000", "111527.026000", "111527.033000", "111527.036000", "111527.038000", "111527.041000", "111527.043000", "111527.045000", "111527.048000", "111527.050000", "111527.052000", "111527.055000", "111527.057000", "111527.060000", "111527.062000", "111527.064000", "111527.067000", "111527.069000", "111546.987000", "111546.990000", "111546.992000", "111546.995000", "111546.997000", "111547.001000", "111547.003000", "111547.006000", "111547.008000", "111547.010000", "111547.013000", "111547.015000", "111547.017000", "111547.020000", "111547.022000", "111547.025000", "111547.027000", "111547.029000", "111547.032000", "111547.034000", "111547.037000", "111547.039000", "111547.042000", "111547.044000", "111547.046000", "111547.049000", "111547.051000", "111547.054000", "111547.056000", "111547.063000", "111547.066000", "111547.068000", "111547.071000", "111606.986000", "111606.989000", "111606.991000", "111606.993000", "111606.996000", "111606.998000", "111607.001000", "111607.004000", "111607.006000", "111607.008000", "111607.011000", "111607.013000", "111607.016000", "111607.018000", "111607.021000", "111607.023000", "111607.026000", "111607.028000", "111607.030000", "111607.033000", "111607.035000", "111607.038000", "111607.040000", "111607.042000", "111607.045000", "111607.047000", "111607.050000", "111607.052000", "111607.054000", "111607.057000", "111607.059000", "111607.061000", "111607.064000", "111626.986000", "111626.989000", "111626.991000", "111626.993000", "111626.996000", "111627.004000", "111627.006000", "111627.008000", "111627.011000", "111627.013000", "111627.016000", "111627.018000", "111627.020000", "111627.023000", "111627.025000", "111627.027000", "111627.030000", "111627.032000", "111627.035000", "111627.037000", "111627.039000", "111627.042000", "111627.044000", "111627.046000", "111627.049000", "111627.051000", "111627.054000", "111627.056000", "111627.058000", "111627.061000", "111627.063000", "111627.066000", "111627.068000", "111646.986000", "111646.989000", "111646.991000", "111646.994000", "111646.996000", "111646.998000", "111647.002000", "111647.004000", "111647.006000", "111647.009000", "111647.011000", "111647.013000", "111647.016000", "111647.018000", "111647.021000", "111647.023000", "111647.025000", "111647.028000", "111647.030000", "111647.032000", "111647.035000", "111647.037000", "111647.040000", "111647.042000", "111647.044000", "111647.047000", "111647.049000", "111647.051000", "111647.054000", "111647.056000", "111647.058000", "111647.061000", "111647.063000", "111706.986000", "111706.989000", "111706.992000", "111706.994000", "111706.996000", "111707.000000", "111707.002000", "111707.005000", "111707.007000", "111707.009000", "111707.012000", "111707.014000", "111707.017000", "111707.019000", "111707.021000", "111707.024000", "111707.026000", "111707.028000", "111707.031000", "111707.033000", "111707.036000", "111707.038000", "111707.040000", "111707.043000", "111707.045000", "111707.048000", "111707.050000", "111707.052000", "111707.055000", "111707.057000", "111707.060000", "111707.062000", "111726.986000", "111726.989000", "111726.991000", "111726.994000", "111726.996000", "111726.998000", "111727.002000", "111727.004000", "111727.007000", "111727.009000", "111727.012000", "111727.014000", "111727.017000", "111727.019000", "111727.021000", "111727.024000", "111727.027000", "111727.029000", "111727.032000", "111727.034000", "111727.036000", "111727.039000", "111727.041000", "111727.044000", "111727.046000", "111727.048000", "111727.051000", "111727.053000", "111727.056000", "111727.058000", "111727.061000", "111727.063000", "111727.065000", "111746.986000", "111746.989000", "111746.991000", "111746.994000", "111746.996000", "111746.998000", "111747.002000", "111747.004000", "111747.006000", "111747.009000", "111747.011000", "111747.014000", "111747.016000", "111747.018000", "111747.021000", "111747.023000", "111747.026000", "111747.028000", "111747.030000", "111747.033000", "111747.035000", "111747.038000", "111747.040000", "111747.042000", "111747.045000", "111747.047000", "111747.049000", "111747.052000", "111747.054000", "111747.057000", "111747.059000", "111747.061000", "111747.065000", "111806.986000", "111806.989000", "111806.992000", "111806.994000", "111806.996000", "111807.000000", "111807.003000", "111807.005000", "111807.007000", "111807.010000", "111807.012000", "111807.015000", "111807.017000", "111807.020000", "111807.022000", "111807.024000", "111807.027000", "111807.029000", "111807.032000", "111807.034000", "111807.037000", "111807.039000", "111807.041000", "111807.044000", "111807.046000", "111807.049000", "111807.051000", "111807.053000", "111807.056000", "111807.058000", "111807.061000", "111807.063000", "111807.065000", "111826.986000", "111826.989000", "111826.991000", "111826.994000", "111826.996000", "111827.000000", "111827.002000", "111827.005000", "111827.007000", "111827.010000", "111827.012000", "111827.015000", "111827.017000", "111827.019000", "111827.022000", "111827.024000", "111827.027000", "111827.029000", "111827.031000", "111827.034000", "111827.036000", "111827.039000", "111827.041000", "111827.043000", "111827.046000", "111827.048000", "111827.051000", "111827.053000", "111827.056000", "111827.058000", "111827.060000", "111827.063000", "111827.065000", "111846.986000", "111846.990000", "111846.992000", "111846.994000", "111846.997000", "111847.000000", "111847.003000", "111847.005000", "111847.008000", "111847.010000", "111847.012000", "111847.015000", "111847.017000", "111847.020000", "111847.022000", "111847.025000", "111847.027000", "111847.030000", "111847.032000", "111847.035000", "111847.037000", "111847.040000", "111847.042000", "111847.044000", "111847.047000", "111847.049000", "111847.052000", "111847.054000", "111847.056000", "111847.059000", "111847.061000", "111847.064000", "111906.986000", "111906.990000", "111906.992000", "111906.995000", "111906.997000", "111907.000000", "111907.003000", "111907.005000", "111907.008000", "111907.010000", "111907.012000", "111907.015000", "111907.017000", "111907.019000", "111907.022000", "111907.024000", "111907.026000", "111907.029000", "111907.031000", "111907.034000", "111907.036000", "111907.038000", "111907.041000", "111907.043000", "111907.045000", "111907.048000", "111907.050000", "111907.053000", "111907.055000", "111907.057000", "111907.060000", "111907.062000", "111907.065000", "111926.986000", "111926.989000", "111926.991000", "111926.994000", "111926.996000", "111927.000000", "111927.002000", "111927.005000", "111927.007000", "111927.009000", "111927.012000", "111927.014000", "111927.017000", "111927.019000", "111927.022000", "111927.024000", "111927.026000", "111927.029000", "111927.031000", "111927.034000", "111927.036000", "111927.038000", "111927.041000", "111927.043000", "111927.045000", "111927.048000", "111927.050000", "111927.053000", "111927.055000", "111927.057000", "111927.060000", "111927.062000", "111927.065000", "111946.986000", "111946.989000", "111946.991000", "111946.994000", "111946.996000", "111947.000000", "111947.002000", "111947.005000", "111947.007000", "111947.010000", "111947.012000", "111947.015000", "111947.017000", "111947.020000", "111947.022000", "111947.025000", "111947.027000", "111947.029000", "111947.032000", "111947.034000", "111947.037000", "111947.039000", "111947.042000", "111947.044000", "111947.046000", "111947.049000", "111947.051000", "111947.054000", "111947.056000", "111947.059000", "111947.061000", "111947.063000", "111947.066000", "111958.428000", "111958.430000", "111958.433000", "111958.435000", "111958.438000", "111958.440000", "111958.442000", "111958.445000", "111958.447000", "111958.449000", "111958.452000", "111958.454000", "111958.457000", "111958.459000", "111958.461000", "111958.464000", "111958.466000", "111958.468000", "111958.478000"], "InstanceCreationTime": ["111506.991000", "111506.994000", "111506.997000", "111507.000000", "111507.003000", "111507.005000", "111507.007000", "111507.010000", "111507.012000", "111507.014000", "111507.017000", "111507.019000", "111507.022000", "111507.024000", "111507.026000", "111507.029000", "111507.036000", "111507.038000", "111507.041000", "111507.043000", "111507.046000", "111507.048000", "111507.050000", "111507.053000", "111507.055000", "111507.057000", "111507.060000", "111507.062000", "111507.064000", "111507.067000", "111507.069000", "111507.071000", "111526.986000", "111526.989000", "111526.992000", "111526.995000", "111526.997000", "111527.001000", "111527.003000", "111527.006000", "111527.008000", "111527.011000", "111527.014000", "111527.016000", "111527.018000", "111527.021000", "111527.023000", "111527.026000", "111527.033000", "111527.036000", "111527.038000", "111527.041000", "111527.043000", "111527.045000", "111527.048000", "111527.050000", "111527.052000", "111527.055000", "111527.057000", "111527.060000", "111527.062000", "111527.064000", "111527.067000", "111527.069000", "111546.987000", "111546.990000", "111546.992000", "111546.995000", "111546.997000", "111547.001000", "111547.003000", "111547.006000", "111547.008000", "111547.010000", "111547.013000", "111547.015000", "111547.017000", "111547.020000", "111547.022000", "111547.025000", "111547.027000", "111547.029000", "111547.032000", "111547.034000", "111547.037000", "111547.039000", "111547.042000", "111547.044000", "111547.046000", "111547.049000", "111547.051000", "111547.054000", "111547.056000", "111547.063000", "111547.066000", "111547.068000", "111547.071000", "111606.986000", "111606.989000", "111606.991000", "111606.993000", "111606.996000", "111606.998000", "111607.001000", "111607.004000", "111607.006000", "111607.008000", "111607.011000", "111607.013000", "111607.016000", "111607.018000", "111607.021000", "111607.023000", "111607.026000", "111607.028000", "111607.030000", "111607.033000", "111607.035000", "111607.038000", "111607.040000", "111607.042000", "111607.045000", "111607.047000", "111607.050000", "111607.052000", "111607.054000", "111607.057000", "111607.059000", "111607.061000", "111607.064000", "111626.986000", "111626.989000", "111626.991000", "111626.993000", "111626.996000", "111627.004000", "111627.006000", "111627.008000", "111627.011000", "111627.013000", "111627.016000", "111627.018000", "111627.020000", "111627.023000", "111627.025000", "111627.027000", "111627.030000", "111627.032000", "111627.035000", "111627.037000", "111627.039000", "111627.042000", "111627.044000", "111627.046000", "111627.049000", "111627.051000", "111627.054000", "111627.056000", "111627.058000", "111627.061000", "111627.063000", "111627.066000", "111627.068000", "111646.986000", "111646.989000", "111646.991000", "111646.994000", "111646.996000", "111646.998000", "111647.002000", "111647.004000", "111647.006000", "111647.009000", "111647.011000", "111647.013000", "111647.016000", "111647.018000", "111647.021000", "111647.023000", "111647.025000", "111647.028000", "111647.030000", "111647.032000", "111647.035000", "111647.037000", "111647.040000", "111647.042000", "111647.044000", "111647.047000", "111647.049000", "111647.051000", "111647.054000", "111647.056000", "111647.058000", "111647.061000", "111647.063000", "111706.986000", "111706.989000", "111706.992000", "111706.994000", "111706.996000", "111707.000000", "111707.002000", "111707.005000", "111707.007000", "111707.009000", "111707.012000", "111707.014000", "111707.017000", "111707.019000", "111707.021000", "111707.024000", "111707.026000", "111707.028000", "111707.031000", "111707.033000", "111707.036000", "111707.038000", "111707.040000", "111707.043000", "111707.045000", "111707.048000", "111707.050000", "111707.052000", "111707.055000", "111707.057000", "111707.060000", "111707.062000", "111726.986000", "111726.989000", "111726.991000", "111726.994000", "111726.996000", "111726.998000", "111727.002000", "111727.004000", "111727.007000", "111727.009000", "111727.012000", "111727.014000", "111727.017000", "111727.019000", "111727.021000", "111727.024000", "111727.027000", "111727.029000", "111727.032000", "111727.034000", "111727.036000", "111727.039000", "111727.041000", "111727.044000", "111727.046000", "111727.048000", "111727.051000", "111727.053000", "111727.056000", "111727.058000", "111727.061000", "111727.063000", "111727.065000", "111746.986000", "111746.989000", "111746.991000", "111746.994000", "111746.996000", "111746.998000", "111747.002000", "111747.004000", "111747.006000", "111747.009000", "111747.011000", "111747.014000", "111747.016000", "111747.018000", "111747.021000", "111747.023000", "111747.026000", "111747.028000", "111747.030000", "111747.033000", "111747.035000", "111747.038000", "111747.040000", "111747.042000", "111747.045000", "111747.047000", "111747.049000", "111747.052000", "111747.054000", "111747.057000", "111747.059000", "111747.061000", "111747.065000", "111806.986000", "111806.989000", "111806.992000", "111806.994000", "111806.996000", "111807.000000", "111807.003000", "111807.005000", "111807.007000", "111807.010000", "111807.012000", "111807.015000", "111807.017000", "111807.020000", "111807.022000", "111807.024000", "111807.027000", "111807.029000", "111807.032000", "111807.034000", "111807.037000", "111807.039000", "111807.041000", "111807.044000", "111807.046000", "111807.049000", "