{
    "AcquisitionMatrixPE": 64,
    "AcquisitionNumber": 1,
    "AcquisitionTime": "14:11:28.687500",
    "BandwidthPerPixelPhaseEncode": 28.935,
    "BaseResolution": 64,
    "BodyPartExamined": "BRAIN",
    "CoilString": "HC2_4_6_7",
    "ConsistencyInfo": "N4_VE11E_LATEST_20181129",
    "ConversionSoftware": "dcm2niix",
    "ConversionSoftwareVersion": "v1.0.20190902",
    "DerivedVendorReportedEchoSpacing": 0.000540003,
    "DeviceSerialNumber": "166182",
    "DwellTime": 3.4e-06,
    "EchoTime": 0.032,
    "EchoTrainLength": 64,
    "EffectiveEchoSpacing": 0.000540003,
    "FlipAngle": 40,
    "ImageOrientationPatientDICOM": [
        0.992898,
        -0.113856,
        -0.0344919,
        0.113829,
        0.993497,
        -0.00276192
    ],
    "ImageType": [
        "ORIGINAL",
        "PRIMARY",
        "M",
        "ND",
        "NORM",
        "MOSAIC"
    ],
    "ImagingFrequency": 123.256,
    "InPlanePhaseEncodingDirectionDICOM": "COL",
    "InstitutionAddress": "PEARSE_STREET_._City_District_IE_D2",
    "InstitutionName": "TCIN",
    "InstitutionalDepartmentName": "MRI",
    "MRAcquisitionType": "2D",
    "MagneticFieldStrength": 3,
    "Manufacturer": "Siemens",
    "ManufacturersModelName": "Prisma",
    "Modality": "MR",
    "MultibandAccelerationFactor": 4,
    "PartialFourier": 1,
    "PatientPosition": "HFS",
    "PercentPhaseFOV": 100,
    "PhaseEncodingDirection": "j-",
    "PhaseEncodingSteps": 64,
    "PhaseResolution": 1,
    "PixelBandwidth": 2300,
    "ProcedureStepDescription": "Rhodri_Head_BOLD",
    "ProtocolName": "cmrr_mbep2d_Pictures_AP_RDS",
    "PulseSequenceDetails": "%SiemensSeq%_ep2d_bold",
    "ReceiveCoilActiveElements": "HC2,4,6,7",
    "ReceiveCoilName": "HeadNeck_64",
    "ReconMatrixPE": 64,
    "RefLinesPE": 12,
    "RepetitionTime": 0.61,
    "SAR": 0.226404,
    "ScanOptions": "FS",
    "ScanningSequence": "EP",
    "SequenceName": "_epfid2d1_64",
    "SequenceVariant": "SK",
    "SeriesDescription": "cmrr_mbep2d_Pictures_AP_RDS",
    "SeriesNumber": 8,
    "ShimSetting": [
        -3618,
        -7460,
        3879,
        838,
        43,
        135,
        291,
        78
    ],
    "SliceThickness": 3,
    "SliceTiming": [
        0.2625,
        0,
        0.3275,
        0.065,
        0.3925,
        0.1325,
        0.46,
        0.1975,
        0.525,
        0.2625,
        0,
        0.3275,
        0.065,
        0.3925,
        0.1325,
        0.46,
        0.1975,
        0.525,
        0.2625,
        0,
        0.3275,
        0.065,
        0.3925,
        0.1325,
        0.46,
        0.1975,
        0.525,
        0.2625,
        0,
        0.3275,
        0.065,
        0.3925,
        0.1325,
        0.46,
        0.1975,
        0.525
    ],
    "SoftwareVersions": "syngo_MR_E11",
    "SpacingBetweenSlices": 3.3,
    "StationName": "AWP166182",
    "TaskName": "pictures",
    "TotalReadoutTime": 0.0340202,
    "TxRefAmp": 248.391,
    "dcmmeta_affine": [
        [
            -2.9786949157714844,
            0.3414861857891083,
            -0.1141207292675972,
            88.68802642822266
        ],
        [
            0.3415682315826416,
            2.980489730834961,
            0.003906736616045237,
            -107.33787536621094
        ],
        [
            -0.10347568243741989,
            0.008285769261419773,
            3.2980239391326904,
            -83.0907211303711
        ],
        [
            0.0,
            0.0,
            0.0,
            1.0
        ]
    ],
    "dcmmeta_reorient_transform": [
        [
            0.0,
            -1.0,
            0.0,
            63.0
        ],
        [
            1.0,
            0.0,
            0.0,
            0.0
        ],
        [
            0.0,
            0.0,
            1.0,
            0.0
        ],
        [
            0.0,
            0.0,
            0.0,
            1.0
        ]
    ],
    "dcmmeta_shape": [
        64,
        64,
        36,
        510
    ],
    "dcmmeta_slice_dim": 2,
    "dcmmeta_version": 0.6,
    "global": {
        "const": {
            "AcquisitionMatrix": [
                64,
                0,
                0,
                64
            ],
            "AngioFlag": "N",
            "BitsAllocated": 16,
            "BitsStored": 12,
            "BodyPartExamined": "BRAIN",
            "Columns": 384,
            "EchoNumbers": 1,
            "EchoTime": 32.0,
            "EchoTrainLength": 64,
            "FlipAngle": 40.0,
            "HighBit": 11,
            "ImageOrientationPatient": [
                0.99289833447889,
                -0.1138560784141,
                -0.0344918946597,
                0.11382873053636,
                0.99349654850159,
                -0.0027619232253
            ],
            "ImagePositionPatient": [
                -641.43065125565,
                -502.66039713285,
                -64.686881464622
            ],
            "ImageType": [
                "ORIGINAL",
                "PRIMARY",
                "M",
                "ND",
                "NORM",
                "MOSAIC"
            ],
            "ImagedNucleus": "1H",
            "ImagingFrequency": 123.256009,
            "InPlanePhaseEncodingDirection": "COL",
            "MRAcquisitionType": "2D",
            "MagneticFieldStrength": 3.0,
            "Manufacturer": "SIEMENS",
            "ManufacturerModelName": "Prisma",
            "Modality": "MR",
            "NumberOfAverages": 1.0,
            "NumberOfPhaseEncodingSteps": 64,
            "PercentPhaseFieldOfView": 100.0,
            "PercentSampling": 100.0,
            "PerformedProcedureStepStartTime": "135422.075000",
            "PhotometricInterpretation": "MONOCHROME2",
            "PixelBandwidth": 2300.0,
            "PixelRepresentation": 0,
            "PixelSpacing": [
                3.0,
                3.0
            ],
            "ProtocolName": "cmrr_mbep2d_Pictures_AP_RDS",
            "RepetitionTime": 610.0,
            "Rows": 384,
            "SAR": 0.22640404383155,
            "SamplesPerPixel": 1,
            "ScanOptions": "FS",
            "ScanningSequence": "EP",
            "SequenceName": "*epfid2d1_64",
            "SequenceVariant": "SK",
            "SeriesDescription": "cmrr_mbep2d_Pictures_AP_RDS",
            "SeriesNumber": 8,
            "SeriesTime": "141145.409000",
            "SliceLocation": -86.235045572905,
            "SliceThickness": 3.0,
            "SmallestImagePixelValue": 0,
            "SoftwareVersions": "syngo MR E11",
            "SpacingBetweenSlices": 3.2999999914534,
            "SpecificCharacterSet": "ISO_IR 100",
            "StudyID": "1",
            "StudyTime": "135421.985000",
            "TransmitCoilName": "Body",
            "VariableFlipAngleFlag": "N",
            "WindowCenterWidthExplanation": "Algo1"
        },
        "slices": {}
    },
    "time": {
        "samples": {
            "AcquisitionNumber": [
                1,
                2,
                3,
                4,
                5,
                6,
                7,
                8,
                9,
                10,
                11,
                12,
                13,
                14,
                15,
                16,
                17,
                18,
                19,
                20,
                21,
                22,
                23,
                24,
                25,
                26,
                27,
                28,
                29,
                30,
                31,
                32,
                33,
                34,
                35,
                36,
                37,
                38,
                39,
                40,
                41,
                42,
                43,
                44,
                45,
                46,
                47,
                48,
                49,
                50,
                51,
                52,
                53,
                54,
                55,
                56,
                57,
                58,
                59,
                60,
                61,
                62,
                63,
                64,
                65,
                66,
                67,
                68,
                69,
                70,
                71,
                72,
                73,
                74,
                75,
                76,
                77,
                78,
                79,
                80,
                81,
                82,
                83,
                84,
                85,
                86,
                87,
                88,
                89,
                90,
                91,
                92,
                93,
                94,
                95,
                96,
                97,
                98,
                99,
                100,
                101,
                102,
                103,
                104,
                105,
                106,
                107,
                108,
                109,
                110,
                111,
                112,
                113,
                114,
                115,
                116,
                117,
                118,
                119,
                120,
                121,
                122,
                123,
                124,
                125,
                126,
                127,
                128,
                129,
                130,
                131,
                132,
                133,
                134,
                135,
                136,
                137,
                138,
                139,
                140,
                141,
                142,
                143,
                144,
                145,
                146,
                147,
                148,
                149,
                150,
                151,
                152,
                153,
                154,
                155,
                156,
                157,
                158,
                159,
                160,
                161,
                162,
                163,
                164,
                165,
                166,
                167,
                168,
                169,
                170,
                171,
                172,
                173,
                174,
                175,
                176,
                177,
                178,
                179,
                180,
                181,
                182,
                183,
                184,
                185,
                186,
                187,
                188,
                189,
                190,
                191,
                192,
                193,
                194,
                195,
                196,
                197,
                198,
                199,
                200,
                201,
                202,
                203,
                204,
                205,
                206,
                207,
                208,
                209,
                210,
                211,
                212,
                213,
                214,
                215,
                216,
                217,
                218,
                219,
                220,
                221,
                222,
                223,
                224,
                225,
                226,
                227,
                228,
                229,
                230,
                231,
                232,
                233,
                234,
                235,
                236,
                237,
                238,
                239,
                240,
                241,
                242,
                243,
                244,
                245,
                246,
                247,
                248,
                249,
                250,
                251,
                252,
                253,
                254,
                255,
                256,
                257,
                258,
                259,
                260,
                261,
                262,
                263,
                264,
                265,
                266,
                267,
                268,
                269,
                270,
                271,
                272,
                273,
                274,
                275,
                276,
                277,
                278,
                279,
                280,
                281,
                282,
                283,
                284,
                285,
                286,
                287,
                288,
                289,
                290,
                291,
                292,
                293,
                294,
                295,
                296,
                297,
                298,
                299,
                300,
                301,
                302,
                303,
                304,
                305,
                306,
                307,
                308,
                309,
                310,
                311,
                312,
                313,
                314,
                315,
                316,
                317,
                318,
                319,
                320,
                321,
                322,
                323,
                324,
                325,
                326,
                327,
                328,
                329,
                330,
                331,
                332,
                333,
                334,
                335,
                336,
                337,
                338,
                339,
                340,
                341,
                342,
                343,
                344,
                345,
                346,
                347,
                348,
                349,
                350,
                351,
                352,
                353,
                354,
                355,
                356,
                357,
                358,
                359,
                360,
                361,
                362,
                363,
                364,
                365,
                366,
                367,
                368,
                369,
                370,
                371,
                372,
                373,
                374,
                375,
                376,
                377,
                378,
                379,
                380,
                381,
                382,
                383,
                384,
                385,
                386,
                387,
                388,
                389,
                390,
                391,
                392,
                393,
                394,
                395,
                396,
                397,
                398,
                399,
                400,
                401,
                402,
                403,
                404,
                405,
                406,
                407,
                408,
                409,
                410,
                411,
                412,
                413,
                414,
                415,
                416,
                417,
                418,
                419,
                420,
                421,
                422,
                423,
                424,
                425,
                426,
                427,
                428,
                429,
                430,
                431,
                432,
                433,
                434,
                435,
                436,
                437,
                438,
                439,
                440,
                441,
                442,
                443,
                444,
                445,
                446,
                447,
                448,
                449,
                450,
                451,
                452,
                453,
                454,
                455,
                456,
                457,
                458,
                459,
                460,
                461,
                462,
                463,
                464,
                465,
                466,
                467,
                468,
                469,
                470,
                471,
                472,
                473,
                474,
                475,
                476,
                477,
                478,
                479,
                480,
                481,
                482,
                483,
                484,
                485,
                486,
                487,
                488,
                489,
                490,
                491,
                492,
                493,
                494,
                495,
                496,
                497,
                498,
                499,
                500,
                501,
                502,
                503,
                504,
                505,
                506,
                507,
                508,
                509,
                510
            ],
            "AcquisitionTime": [
                "141128.687500",
                "141129.297500",
                "141129.907500",
                "141130.517500",
                "141131.127500",
                "141131.737500",
                "141132.347500",
                "141132.957500",
                "141133.567500",
                "141134.177500",
                "141134.787500",
                "141135.397500",
                "141136.007500",
                "141136.617500",
                "141137.227500",
                "141137.837500",
                "141138.447500",
                "141139.057500",
                "141139.667500",
                "141140.277500",
                "141140.887500",
                "141141.497500",
                "141142.107500",
                "141142.717500",
                "141143.327500",
                "141143.937500",
                "141144.547500",
                "141145.157500",
                "141145.767500",
                "141146.377500",
                "141146.987500",
                "141147.597500",
                "141148.207500",
                "141148.817500",
                "141149.427500",
                "141150.037500",
                "141150.647500",
                "141151.257500",
                "141151.867500",
                "141152.477500",
                "141153.087500",
                "141153.697500",
                "141154.307500",
                "141154.917500",
                "141155.527500",
                "141156.137500",
                "141156.747500",
                "141157.357500",
                "141157.967500",
                "141158.577500",
                "141159.187500",
                "141159.797500",
                "141200.407500",
                "141201.017500",
                "141201.627500",
                "141202.237500",
                "141202.847500",
                "141203.457500",
                "141204.067500",
                "141204.677500",
                "141205.287500",
                "141205.897500",
                "141206.507500",
                "141207.117500",
                "141207.727500",
                "141208.337500",
                "141208.947500",
                "141209.557500",
                "141210.167500",
                "141210.777500",
                "141211.387500",
                "141211.997500",
                "141212.607500",
                "141213.217500",
                "141213.827500",
                "141214.437500",
                "141215.047500",
                "141215.657500",
                "141216.267500",
                "141216.877500",
                "141217.487500",
                "141218.097500",
                "141218.707500",
                "141219.317500",
                "141219.927500",
                "141220.537500",
                "141221.147500",
                "141221.757500",
                "141222.367500",
                "141222.977500",
                "141223.587500",
                "141224.197500",
                "141224.807500",
                "141225.417500",
                "141226.027500",
                "141226.637500",
                "141227.247500",
                "141227.857500",
                "141228.467500",
                "141229.077500",
                "141229.687500",
                "141230.297500",
                "141230.907500",
                "141231.517500",
                "141232.127500",
                "141232.737500",
                "141233.347500",
                "141233.957500",
                "141234.567500",
                "141235.177500",
                "141235.787500",
                "141236.397500",
                "141237.007500",
                "141237.617500",
                "141238.227500",
                "141238.837500",
                "141239.447500",
                "141240.057500",
                "141240.667500",
                "141241.277500",
                "141241.887500",
                "141242.497500",
                "141243.107500",
                "141243.717500",
                "141244.327500",
                "141244.937500",
                "141245.547500",
                "141246.157500",
                "141246.767500",
                "141247.377500",
                "141247.987500",
                "141248.597500",
                "141249.207500",
                "141249.817500",
                "141250.427500",
                "141251.037500",
                "141251.647500",
                "141252.257500",
                "141252.867500",
                "141253.477500",
                "141254.087500",
                "141254.697500",
                "141255.307500",
                "141255.917500",
                "141256.527500",
                "141257.137500",
                "141257.747500",
                "141258.357500",
                "141258.967500",
                "141259.577500",
                "141300.187500",
                "141300.797500",
                "141301.407500",
                "141302.017500",
                "141302.627500",
                "141303.237500",
                "141303.847500",
                "141304.457500",
                "141305.067500",
                "141305.677500",
                "141306.287500",
                "141306.897500",
                "141307.507500",
                "141308.117500",
                "141308.727500",
                "141309.337500",
                "141309.947500",
                "141310.557500",
                "141311.167500",
                "141311.777500",
                "141312.387500",
                "141312.997500",
                "141313.607500",
                "141314.217500",
                "141314.827500",
                "141315.437500",
                "141316.047500",
                "141316.657500",
                "141317.267500",
                "141317.877500",
                "141318.487500",
                "141319.097500",
                "141319.707500",
                "141320.317500",
                "141320.927500",
                "141321.537500",
                "141322.147500",
                "141322.757500",
                "141323.367500",
                "141323.977500",
                "141324.587500",
                "141325.197500",
                "141325.807500",
                "141326.417500",
                "141327.027500",
                "141327.637500",
                "141328.247500",
                "141328.857500",
                "141329.467500",
                "141330.077500",
                "141330.687500",
                "141331.297500",
                "141331.907500",
                "141332.517500",
                "141333.127500",
                "141333.737500",
                "141334.347500",
                "141334.957500",
                "141335.567500",
                "141336.177500",
                "141336.787500",
                "141337.397500",
                "141338.007500",
                "141338.617500",
                "141339.227500",
                "141339.837500",
                "141340.447500",
                "141341.057500",
                "141341.667500",
                "141342.277500",
                "141342.887500",
                "141343.497500",
                "141344.107500",
                "141344.717500",
                "141345.327500",
                "141345.937500",
                "141346.547500",
                "141347.157500",
                "141347.767500",
                "141348.377500",
                "141348.987500",
                "141349.597500",
                "141350.207500",
                "141350.817500",
                "141351.427500",
                "141352.037500",
                "141352.647500",
                "141353.257500",
                "141353.867500",
                "141354.477500",
                "141355.087500",
                "141355.697500",
                "141356.307500",
                "141356.917500",
                "141357.527500",
                "141358.137500",
                "141358.747500",
                "141359.357500",
                "141359.967500",
                "141400.577500",
                "141401.187500",
                "141401.797500",
                "141402.407500",
                "141403.017500",
                "141403.627500",
                "141404.237500",
                "141404.847500",
                "141405.457500",
                "141406.067500",
                "141406.677500",
                "141407.287500",
                "141407.897500",
                "141408.507500",
                "141409.117500",
                "141409.727500",
                "141410.337500",
                "141410.947500",
                "141411.557500",
                "141412.167500",
                "141412.777500",
                "141413.387500",
                "141413.997500",
                "141414.607500",
                "141415.217500",
                "141415.827500",
                "141416.437500",
                "141417.047500",
                "141417.657500",
                "141418.267500",
                "141418.877500",
                "141419.487500",
                "141420.097500",
                "141420.707500",
                "141421.317500",
                "141421.927500",
                "141422.537500",
                "141423.147500",
                "141423.757500",
                "141424.367500",
                "141424.977500",
                "141425.587500",
                "141426.197500",
                "141426.807500",
                "141427.417500",
                "141428.027500",
                "141428.637500",
                "141429.247500",
                "141429.857500",
                "141430.467500",
                "141431.077500",
                "141431.687500",
                "141432.297500",
                "141432.907500",
                "141433.517500",
                "141434.127500",
                "141434.737500",
                "141435.347500",
                "141435.957500",
                "141436.567500",
                "141437.177500",
                "141437.787500",
                "141438.397500",
                "141439.007500",
                "141439.617500",
                "141440.227500",
                "141440.837500",
                "141441.447500",
                "141442.057500",
                "141442.667500",
                "141443.277500",
                "141443.887500",
                "141444.497500",
                "141445.107500",
                "141445.717500",
                "141446.327500",
                "141446.937500",
                "141447.547500",
                "141448.157500",
                "141448.767500",
                "141449.377500",
                "141449.987500",
                "141450.597500",
                "141451.207500",
                "141451.817500",
                "141452.427500",
                "141453.037500",
                "141453.647500",
                "141454.257500",
                "141454.867500",
                "141455.477500",
                "141456.087500",
                "141456.697500",
                "141457.307500",
                "141457.917500",
                "141458.527500",
                "141459.137500",
                "141459.747500",
                "141500.357500",
                "141500.967500",
                "141501.577500",
                "141502.187500",
                "141502.797500",
                "141503.407500",
                "141504.017500",
                "141504.627500",
                "141505.237500",
                "141505.847500",
                "141506.457500",
                "141507.067500",
                "141507.677500",
                "141508.287500",
                "141508.897500",
                "141509.507500",
                "141510.117500",
                "141510.727500",
                "141511.337500",
                "141511.947500",
                "141512.557500",
                "141513.167500",
                "141513.777500",
                "141514.387500",
                "141514.997500",
                "141515.607500",
                "141516.217500",
