{"AcquisitionMatrixPE": 64, "AcquisitionNumber": 1, "AcquisitionTime": "10:15:53.705000", "BandwidthPerPixelPhaseEncode": 28.935, "BaseResolution": 64, "BodyPartExamined": "BRAIN", "CoilCombinationMethod": "Sum of Squares", "ConsistencyInfo": "N4_VE11E_LATEST_20181129", "ConversionSoftware": "dcm2niix", "ConversionSoftwareVersion": "v1.0.20230411", "DerivedVendorReportedEchoSpacing": 0.000540003, "DeviceSerialNumber": "166182", "DwellTime": 3.4e-06, "EchoTime": 0.032, "EchoTrainLength": 64, "EffectiveEchoSpacing": 0.000540003, "FlipAngle": 40, "HeudiconvVersion": "0.13.1", "ImageOrientationPatientDICOM": [0.999125, 0.00484521, -0.0415338, -0.00889362, 0.995161, -0.0978498], "ImageOrientationText": "Tra>Cor(-5.6)>Sag(-2.3)", "ImageType": ["ORIGINAL", "PRIMARY", "M", "ND", "NORM", "MOSAIC"], "ImagingFrequency": 123.255773, "InPlanePhaseEncodingDirectionDICOM": "COL", "InstitutionAddress": "PEARSE STREET .,City,District,IE,D2", "InstitutionName": "TCIN", "InstitutionalDepartmentName": "MRI", "MRAcquisitionType": "2D", "MagneticFieldStrength": 3, "Manufacturer": "Siemens", "ManufacturersModelName": "Prisma", "Modality": "MR", "MultibandAccelerationFactor": 4, "NonlinearGradientCorrection": false, "PartialFourier": 1, "PatientPosition": "HFS", "PercentPhaseFOV": 100, "PercentSampling": 100, "PhaseEncodingDirection": "j-", "PhaseEncodingSteps": 64, "PhaseResolution": 1, "PixelBandwidth": 2300, "ProcedureStepDescription": "Rhodri^Head BOLD", "ProtocolName": "cmrr_mbep2d_Pictures_AP_RDS", "PulseSequenceDetails": "%SiemensSeq%\\ep2d_bold", "ReceiveCoilActiveElements": "HC2,4,6,7;SC", "ReceiveCoilName": "SpecialPurpose_4", "ReconMatrixPE": 64, "RefLinesPE": 12, "RepetitionTime": 0.61, "SAR": 0.292953, "ScanOptions": "FS", "ScanningSequence": "EP", "SequenceName": "*epfid2d1_64", "SequenceVariant": "SK", "SeriesDescription": "cmrr_mbep2d_Pictures_AP_RDS", "SeriesNumber": 8, "ShimSetting": [-3569, -7472, 3893, 970, -250, -73, 229, -17], "SliceThickness": 3, "SliceTiming": [0.2625, 0, 0.3275, 0.065, 0.3925, 0.13, 0.46, 0.1975, 0.525, 0.2625, 0, 0.3275, 0.065, 0.3925, 0.13, 0.46, 0.1975, 0.525, 0.2625, 0, 0.3275, 0.065, 0.3925, 0.13, 0.46, 0.1975, 0.525, 0.2625, 0, 0.3275, 0.065, 0.3925, 0.13, 0.46, 0.1975, 0.525], "SoftwareVersions": "syngo MR E11", "SpacingBetweenSlices": 3.3, "StationName": "AWP166182", "TaskName": "pictures", "TotalReadoutTime": 0.0340202, "TxRefAmp": 225.751, "dcmmeta_affine": [[-2.997375965118408, -0.02668086625635624, -0.1348339021205902, 97.46708679199219], [-0.014535635709762573, 2.9854843616485596, -0.32384076714515686, -101.34049987792969], [-0.12460147589445114, 0.2935492992401123, 3.2813026905059814, -92.80337524414062], [0.0, 0.0, 0.0, 1.0]], "dcmmeta_reorient_transform": [[0.0, -1.0, 0.0, 63.0], [1.0, 0.0, 0.0, 0.0], [0.0, 0.0, 1.0, 0.0], [0.0, 0.0, 0.0, 1.0]], "dcmmeta_shape": [64, 64, 36, 510], "dcmmeta_slice_dim": 2, "dcmmeta_version": 0.6, "global": {"const": {"AcquisitionMatrix": [64, 0, 0, 64], "AngioFlag": "N", "BitsAllocated": 16, "BitsStored": 12, "BodyPartExamined": "BRAIN", "Columns": 384, "EchoNumbers": 1, "EchoTime": 32.0, "EchoTrainLength": 64, "FlipAngle": 40.0, "HighBit": 11, "ImageOrientationPatient": [0.99912535017506, 0.00484521176502, -0.0415338242945, -0.0088936218576, 0.995161457498, -0.0978497675047], "ImagePositionPatient": [-571.09742077093, -566.74821481703, -7.4056486578549], "ImageType": ["ORIGINAL", "PRIMARY", "M", "ND", "NORM", "MOSAIC"], "ImagedNucleus": "1H", "ImagingFrequency": 123.255773, "InPlanePhaseEncodingDirection": "COL", "MRAcquisitionType": "2D", "MagneticFieldStrength": 3.0, "Manufacturer": "SIEMENS", "ManufacturerModelName": "Prisma", "Modality": "MR", "NumberOfAverages": 1.0, "NumberOfPhaseEncodingSteps": 64, "PercentPhaseFieldOfView": 100.0, "PercentSampling": 100.0, "PerformedProcedureStepStartTime": "100724.961000", "PhotometricInterpretation": "MONOCHROME2", "PixelBandwidth": 2300.0, "PixelRepresentation": 0, "PixelSpacing": [3.0, 3.0], "ProtocolName": "cmrr_mbep2d_Pictures_AP_RDS", "RepetitionTime": 610.0, "Rows": 384, "SAR": 0.29295276063543, "SamplesPerPixel": 1, "ScanOptions": "FS", "ScanningSequence": "EP", "SequenceName": "*epfid2d1_64", "SequenceVariant": "SK", "SeriesDescription": "cmrr_mbep2d_Pictures_AP_RDS", "SeriesNumber": 8, "SeriesTime": "101613.657000", "SliceLocation": -86.315045934066, "SliceThickness": 3.0, "SmallestImagePixelValue": 0, "SoftwareVersions": "syngo MR E11", "SpacingBetweenSlices": 3.2999999547008, "SpecificCharacterSet": "ISO_IR 100", "StudyID": "1", "StudyTime": "100724.811000", "TransmitCoilName": "Body", "VariableFlipAngleFlag": "N", "WindowCenterWidthExplanation": "Algo1"}, "slices": {}}, "time": {"samples": {"AcquisitionNumber": [1, 2, 3, 4, 5, 6, 7, 8, 9, 10, 11, 12, 13, 14, 15, 16, 17, 18, 19, 20, 21, 22, 23, 24, 25, 26, 27, 28, 29, 30, 31, 32, 33, 34, 35, 36, 37, 38, 39, 40, 41, 42, 43, 44, 45, 46, 47, 48, 49, 50, 51, 52, 53, 54, 55, 56, 57, 58, 59, 60, 61, 62, 63, 64, 65, 66, 67, 68, 69, 70, 71, 72, 73, 74, 75, 76, 77, 78, 79, 80, 81, 82, 83, 84, 85, 86, 87, 88, 89, 90, 91, 92, 93, 94, 95, 96, 97, 98, 99, 100, 101, 102, 103, 104, 105, 106, 107, 108, 109, 110, 111, 112, 113, 114, 115, 116, 117, 118, 119, 120, 121, 122, 123, 124, 125, 126, 127, 128, 129, 130, 131, 132, 133, 134, 135, 136, 137, 138, 139, 140, 141, 142, 143, 144, 145, 146, 147, 148, 149, 150, 151, 152, 153, 154, 155, 156, 157, 158, 159, 160, 161, 162, 163, 164, 165, 166, 167, 168, 169, 170, 171, 172, 173, 174, 175, 176, 177, 178, 179, 180, 181, 182, 183, 184, 185, 186, 187, 188, 189, 190, 191, 192, 193, 194, 195, 196, 197, 198, 199, 200, 201, 202, 203, 204, 205, 206, 207, 208, 209, 210, 211, 212, 213, 214, 215, 216, 217, 218, 219, 220, 221, 222, 223, 224, 225, 226, 227, 228, 229, 230, 231, 232, 233, 234, 235, 236, 237, 238, 239, 240, 241, 242, 243, 244, 245, 246, 247, 248, 249, 250, 251, 252, 253, 254, 255, 256, 257, 258, 259, 260, 261, 262, 263, 264, 265, 266, 267, 268, 269, 270, 271, 272, 273, 274, 275, 276, 277, 278, 279, 280, 281, 282, 283, 284, 285, 286, 287, 288, 289, 290, 291, 292, 293, 294, 295, 296, 297, 298, 299, 300, 301, 302, 303, 304, 305, 306, 307, 308, 309, 310, 311, 312, 313, 314, 315, 316, 317, 318, 319, 320, 321, 322, 323, 324, 325, 326, 327, 328, 329, 330, 331, 332, 333, 334, 335, 336, 337, 338, 339, 340, 341, 342, 343, 344, 345, 346, 347, 348, 349, 350, 351, 352, 353, 354, 355, 356, 357, 358, 359, 360, 361, 362, 363, 364, 365, 366, 367, 368, 369, 370, 371, 372, 373, 374, 375, 376, 377, 378, 379, 380, 381, 382, 383, 384, 385, 386, 387, 388, 389, 390, 391, 392, 393, 394, 395, 396, 397, 398, 399, 400, 401, 402, 403, 404, 405, 406, 407, 408, 409, 410, 411, 412, 413, 414, 415, 416, 417, 418, 419, 420, 421, 422, 423, 424, 425, 426, 427, 428, 429, 430, 431, 432, 433, 434, 435, 436, 437, 438, 439, 440, 441, 442, 443, 444, 445, 446, 447, 448, 449, 450, 451, 452, 453, 454, 455, 456, 457, 458, 459, 460, 461, 462, 463, 464, 465, 466, 467, 468, 469, 470, 471, 472, 473, 474, 475, 476, 477, 478, 479, 480, 481, 482, 483, 484, 485, 486, 487, 488, 489, 490, 491, 492, 493, 494, 495, 496, 497, 498, 499, 500, 501, 502, 503, 504, 505, 506, 507, 508, 509, 510], "AcquisitionTime": ["101553.705000", "101554.315000", "101554.925000", "101555.535000", "101556.145000", "101556.755000", "101557.365000", "101557.975000", "101558.585000", "101559.195000", "101559.805000", "101600.415000", "101601.025000", "101601.635000", "101602.245000", "101602.855000", "101603.465000", "101604.075000", "101604.685000", "101605.295000", "101605.905000", "101606.515000", "101607.125000", "101607.735000", "101608.345000", "101608.955000", "101609.565000", "101610.175000", "101610.785000", "101611.395000", "101612.005000", "101612.615000", "101613.225000", "101613.835000", "101614.445000", "101615.055000", "101615.665000", "101616.275000", "101616.885000", "101617.495000", "101618.105000", "101618.715000", "101619.325000", "101619.935000", "101620.545000", "101621.155000", "101621.765000", "101622.375000", "101622.985000", "101623.595000", "101624.205000", "101624.815000", "101625.425000", "101626.035000", "101626.645000", "101627.255000", "101627.865000", "101628.475000", "101629.085000", "101629.695000", "101630.305000", "101630.915000", "101631.525000", "101632.135000", "101632.745000", "101633.355000", "101633.965000", "101634.575000", "101635.185000", "101635.795000", "101636.405000", "101637.015000", "101637.625000", "101638.235000", "101638.845000", "101639.455000", "101640.065000", "101640.675000", "101641.285000", "101641.895000", "101642.505000", "101643.115000", "101643.725000", "101644.335000", "101644.945000", "101645.555000", "101646.165000", "101646.775000", "101647.385000", "101647.995000", "101648.605000", "101649.215000", "101649.825000", "101650.435000", "101651.045000", "101651.655000", "101652.265000", "101652.875000", "101653.485000", "101654.095000", "101654.705000", "101655.315000", "101655.925000", "101656.535000", "101657.145000", "101657.755000", "101658.365000", "101658.975000", "101659.585000", "101700.195000", "101700.805000", "101701.415000", "101702.025000", "101702.635000", "101703.245000", "101703.855000", "101704.465000", "101705.075000", "101705.685000", "101706.295000", "101706.905000", "101707.515000", "101708.125000", "101708.735000", "101709.345000", "101709.955000", "101710.565000", "101711.175000", "101711.785000", "101712.395000", "101713.005000", "101713.615000", "101714.225000", "101714.835000", "101715.445000", "101716.055000", "101716.665000", "101717.275000", "101717.885000", "101718.495000", "101719.105000", "101719.715000", "101720.325000", "101720.935000", "101721.545000", "101722.155000", "101722.765000", "101723.375000", "101723.985000", "101724.595000", "101725.205000", "101725.815000", "101726.425000", "101727.035000", "101727.645000", "101728.255000", "101728.865000", "101729.475000", "101730.085000", "101730.695000", "101731.305000", "101731.915000", "101732.525000", "101733.135000", "101733.745000", "101734.355000", "101734.965000", "101735.575000", "101736.185000", "101736.795000", "101737.405000", "101738.015000", "101738.625000", "101739.235000", "101739.845000", "101740.455000", "101741.065000", "101741.675000", "101742.285000", "101742.895000", "101743.505000", "101744.115000", "101744.725000", "101745.335000", "101745.945000", "101746.555000", "101747.165000", "101747.775000", "101748.385000", "101748.995000", "101749.605000", "101750.215000", "101750.825000", "101751.435000", "101752.045000", "101752.655000", "101753.265000", "101753.875000", "101754.485000", "101755.095000", "101755.705000", "101756.315000", "101756.925000", "101757.535000", "101758.145000", "101758.755000", "101759.365000", "101759.975000", "101800.585000", "101801.195000", "101801.805000", "101802.415000", "101803.025000", "101803.635000", "101804.245000", "101804.855000", "101805.465000", "101806.075000", "101806.685000", "101807.295000", "101807.905000", "101808.515000", "101809.125000", "101809.735000", "101810.345000", "101810.955000", "101811.565000", "101812.175000", "101812.785000", "101813.395000", "101814.005000", "101814.615000", "101815.225000", "101815.835000", "101816.445000", "101817.055000", "101817.665000", "101818.275000", "101818.885000", "101819.495000", "101820.105000", "101820.715000", "101821.325000", "101821.935000", "101822.545000", "101823.155000", "101823.765000", "101824.375000", "101824.985000", "101825.595000", "101826.205000", "101826.815000", "101827.425000", "101828.035000", "101828.645000", "101829.255000", "101829.865000", "101830.475000", "101831.085000", "101831.695000", "101832.305000", "101832.915000", "101833.525000", "101834.135000", "101834.745000", "101835.355000", "101835.965000", "101836.575000", "101837.185000", "101837.795000", "101838.405000", "101839.015000", "101839.625000", "101840.235000", "101840.845000", "101841.455000", "101842.065000", "101842.675000", "101843.285000", "101843.895000", "101844.505000", "101845.115000", "101845.725000", "101846.335000", "101846.945000", "101847.555000", "101848.165000", "101848.775000", "101849.385000", "101849.995000", "101850.605000", "101851.215000", "101851.825000", "101852.435000", "101853.045000", "101853.655000", "101854.265000", "101854.875000", "101855.485000", "101856.095000", "101856.705000", "101857.315000", "101857.925000", "101858.535000", "101859.145000", "101859.755000", "101900.365000", "101900.975000", "101901.585000", "101902.195000", "101902.805000", "101903.415000", "101904.025000", "101904.635000", "101905.245000", "101905.855000", "101906.465000", "101907.075000", "101907.685000", "101908.295000", "101908.905000", "101909.515000", "101910.125000", "101910.735000", "101911.345000", "101911.955000", "101912.565000", "101913.175000", "101913.785000", "101914.395000", "101915.005000", "101915.615000", "101916.225000", "101916.835000", "101917.445000", "101918.055000", "101918.665000", "101919.275000", "101919.885000", "101920.495000", "101921.105000", "101921.715000", "101922.325000", "101922.935000", "101923.545000", "101924.155000", "101924.765000", "101925.375000", "101925.985000", "101926.595000", "101927.205000", "101927.815000", "101928.425000", "101929.035000", "101929.645000", "101930.255000", "101930.865000", "101931.475000", "101932.085000", "101932.695000", "101933.305000", "101933.915000", "101934.525000", "101935.135000", "101935.745000", "101936.355000", "101936.965000", "101937.575000", "101938.185000", "101938.795000", "101939.405000", "101940.015000", "101940.625000", "101941.235000", "101941.845000", "101942.455000", "101943.065000", "101943.675000", "101944.285000", "101944.895000", "101945.505000", "101946.115000", "101946.725000", "101947.335000", "101947.945000", "101948.555000", "101949.165000", "101949.775000", "101950.385000", "101950.995000", "101951.605000", "101952.215000", "101952.825000", "101953.435000", "101954.045000", "101954.655000", "101955.265000", "101955.875000", "101956.485000", "101957.095000", "101957.705000", "101958.315000", "101958.925000", "101959.535000", "102000.145000", "102000.755000", "102001.365000", "102001.975000", "102002.585000", "102003.195000", "102003.805000", "102004.415000", "102005.025000", "102005.635000", "102006.245000", "102006.855000", "102007.465000", "102008.075000", "102008.685000", "102009.295000", "102009.905000", "102010.515000", "102011.125000", "102011.735000", "102012.345000", "102012.955000", "102013.565000", "102014.175000", "102014.785000", "102015.395000", "102016.005000", "102016.615000", "102017.225000", "102017.835000", "102018.445000", "102019.055000", "102019.665000", "102020.275000", "102020.885000", "102021.495000", "102022.105000", "102022.715000", "102023.325000", "102023.935000", "102024.545000", "102025.155000", "102025.765000", "102026.375000", "102026.985000", "102027.595000", "102028.205000", "102028.815000", "102029.425000", "102030.035000", "102030.645000", "102031.255000", "102031.865000", "102032.475000", "102033.085000", "102033.695000", "102034.305000", "102034.915000", "102035.525000", "102036.135000", "102036.745000", "102037.355000", "102037.965000", "102038.575000", "102039.185000", "102039.795000", "102040.405000", "102041.015000", "102041.625000", "102042.235000", "102042.845000", "102043.455000", "102044.065000", "102044.675000", "102045.285000", "102045.895000", "102046.505000", "102047.115000", "102047.725000", "102048.335000", "102048.945000", "102049.555000", "102050.165000", "102050.775000", "102051.385000", "102051.995000", "102052.605000", "102053.215000", "102053.825000", "102054.435000", "102055.045000", "102055.655000", "102056.265000", "102056.875000", "102057.485000", "102058.095000", "102058.705000", "102059.315000", "102059.925000", "102100.535000", "102101.145000", "102101.755000", "102102.365000", "102102.975000", "102103.585000", "102104.195000"], "ContentTime": ["101613.661000", "101613.664000", "101613.666000", "101613.674000", "101613.676000", "101613.678000", "101613.681000", "101613.683000", "101613.686000", "101613.688000", "101613.690000", "101613.693000", "101613.695000", "101613.697000", "101613.700000", "101613.702000", "101613.704000", "101613.707000", "101613.709000", "101613.712000", "101613.714000", "101613.719000", "101613.722000", "101613.724000", "101613.727000", "101613.729000", "101613.731000", "101613.734000", "101613.736000", "101613.738000", "101613.741000", "101613.743000", "101633.656000", "101633.659000", "101633.661000", "101633.664000", "101633.666000", "101633.668000", "101633.671000", "101633.673000", "101633.675000", "101633.678000", "101633.680000", "101633.682000", "101633.685000", "101633.687000", "101633.690000", "101633.692000", "101633.694000", "101633.697000", "101633.721000", "101633.724000", "101633.726000", "101633.728000", "101633.731000", "101633.733000", "101633.735000", "101633.738000", "101633.740000", "101633.743000", "101633.745000", "101633.747000", "101633.750000", "101633.752000", "101653.656000", "101653.659000", "101653.661000", "101653.663000", "101653.666000", "101653.668000", "101653.671000", "101653.674000", "101653.676000", "101653.678000", "101653.681000", "101653.683000", "101653.685000", "101653.688000", "101653.690000", "101653.693000", "101653.695000", "101653.698000", "101653.700000", "101653.702000", "101653.705000", "101653.707000", "101653.710000", "101653.712000", "101653.714000", "101653.717000", "101653.719000", "101653.721000", "101653.724000", "101653.726000", "101653.729000", "101653.731000", "101653.733000", "101713.656000", "101713.675000", "101713.678000", "101713.680000", "101713.683000", "101713.685000", "101713.688000", "101713.690000", "101713.692000", "101713.695000", "101713.697000", "101713.700000", "101713.702000", "101713.704000", "101713.707000", "101713.709000", "101713.712000", "101713.714000", "101713.716000", "101713.719000", "101713.721000", "101713.724000", "101713.726000", "101713.729000", "101713.731000", "101713.733000", "101713.740000", "101713.743000", "101713.745000", "101713.747000", "101713.750000", "101713.752000", "101713.755000", "101733.656000", "101733.659000", "101733.661000", "101733.664000", "101733.666000", "101733.668000", "101733.671000", "101733.673000", "101733.676000", "101733.678000", "101733.680000", "101733.683000", "101733.685000", "101733.687000", "101733.690000", "101733.692000", "101733.694000", "101733.697000", "101733.699000", "101733.702000", "101733.704000", "101733.706000", "101733.709000", "101733.711000", "101733.714000", "101733.716000", "101733.718000", "101733.721000", "101733.723000", "101733.726000", "101733.728000", "101733.730000", "101733.733000", "101753.656000", "101753.659000", "101753.661000", "101753.664000", "101753.667000", "101753.669000", "101753.671000", "101753.674000", "101753.676000", "101753.679000", "101753.681000", "101753.684000", "101753.686000", "101753.689000", "101753.691000", "101753.693000", "101753.696000", "101753.698000", "101753.700000", "101753.703000", "101753.705000", "101753.708000", "101753.710000", "101753.713000", "101753.715000", "101753.717000", "101753.720000", "101753.722000", "101753.725000", "101753.727000", "101753.729000", "101753.732000", "101753.734000", "101813.655000", "101813.658000", "101813.660000", "101813.671000", "101813.673000", "101813.676000", "101813.678000", "101813.680000", "101813.683000", "101813.685000", "101813.687000", "101813.690000", "101813.692000", "101813.695000", "101813.697000", "101813.699000", "101813.702000", "101813.704000", "101813.706000", "101813.709000", "101813.711000", "101813.713000", "101813.716000", "101813.718000", "101813.721000", "101813.723000", "101813.725000", "101813.728000", "101813.730000", "101813.732000", "101813.735000", "101813.737000", "101833.656000", "101833.659000", "101833.661000", "101833.664000", "101833.666000", "101833.668000", "101833.671000", "101833.673000", "101833.676000", "101833.678000", "101833.681000", "101833.683000", "101833.686000", "101833.688000", "101833.695000", "101833.697000", "101833.700000", "101833.702000", "101833.704000", "101833.707000", "101833.709000", "101833.712000", "101833.715000", "101833.717000", "101833.720000", "101833.722000", "101833.724000", "101833.727000", "101833.729000", "101833.732000", "101833.734000", "101833.736000", "101833.739000", "101853.656000", "101853.659000", "101853.662000", "101853.664000", "101853.666000", "101853.669000", "101853.671000", "101853.673000", "101853.676000", "101853.679000", "101853.681000", "101853.683000", "101853.686000", "101853.688000", "101853.691000", "101853.693000", "101853.696000", "101853.698000", "101853.701000", "101853.703000", "101853.705000", "101853.708000", "101853.710000", "101853.712000", "101853.715000", "101853.717000", "101853.720000", "101853.722000", "101853.725000", "101853.727000", "101853.729000", "101853.732000", "101853.734000", "101913.656000", "101913.659000", "101913.661000", "101913.664000", "101913.667000", "101913.669000", "101913.672000", "101913.674000", "101913.677000", "101913.679000", "101913.681000", "101913.684000", "101913.686000", "101913.689000", "101913.691000", "101913.693000", "101913.696000", "101913.698000", "101913.701000", "101913.703000", "101913.705000", "101913.708000", "101913.710000", "101913.713000", "101913.715000", "101913.717000", "101913.720000", "101913.722000", "101913.725000", "101913.727000", "101913.730000", "101913.732000", "101913.734000", "101933.656000", "101933.659000", "101933.661000", "101933.664000", "101933.666000", "101933.668000", "101933.671000", "101933.673000", "101933.676000", "101933.678000", "101933.680000", "101933.683000", "101933.685000", "101933.688000", "101933.690000", "101933.692000", "101933.695000", "101933.697000", "101933.700000", "101933.702000", "101933.705000", "101933.712000", "101933.715000", "101933.717000", "101933.719000", "101933.722000", "101933.724000", "101933.727000", "101933.729000", "101933.732000", "101933.734000", "101933.736000", "101933.739000", "101953.656000", "101953.659000", "101953.662000", "101953.664000", "101953.667000", "101953.669000", "101953.672000", "101953.674000", "101953.677000", "101953.679000", "101953.682000", "101953.684000", "101953.686000", "101953.701000", "101953.704000", "101953.706000", "101953.708000", "101953.711000", "101953.713000", "101953.716000", "101953.718000", "101953.721000", "101953.723000", "101953.726000", "101953.728000", "101953.730000", "101953.733000", "101953.735000", "101953.738000", "101953.740000", "101953.743000", "101953.745000", "102013.656000", "102013.659000", "102013.661000", "102013.664000", "102013.666000", "102013.669000", "102013.671000", "102013.674000", "102013.676000", "102013.679000", "102013.681000", "102013.683000", "102013.686000", "102013.688000", "102013.691000", "102013.693000", "102013.696000", "102013.698000", "102013.700000", "102013.703000", "102013.705000", "102013.708000", "102013.710000", "102013.713000", "102013.715000", "102013.718000", "102013.720000", "102013.722000", "102013.725000", "102013.727000", "102013.730000", "102013.732000", "102013.734000", "102033.655000", "102033.658000", "102033.660000", "102033.663000", "102033.665000", "102033.667000", "102033.670000", "102033.672000", "102033.675000", "102033.677000", "102033.679000", "102033.682000", "102033.684000", "102033.687000", "102033.689000", "102033.691000", "102033.694000", "102033.696000", "102033.699000", "102033.701000", "102033.704000", "102033.706000", "102033.708000", "102033.711000", "102033.713000", "102033.716000", "102033.718000", "102033.721000", "102033.723000", "102033.725000", "102033.728000", "102033.730000", "102033.732000", "102053.656000", "102053.659000", "102053.661000", "102053.664000", "102053.666000", "102053.669000", "102053.671000", "102053.673000", "102053.676000", "102053.678000", "102053.681000", "102053.683000", "102053.686000", "102053.688000", "102053.691000", "102053.693000", "102053.695000", "102053.698000", "102053.700000", "102053.703000", "102053.705000", "102053.708000", "102053.710000", "102053.713000", "102053.715000", "102053.717000", "102053.720000", "102053.722000", "102053.725000", "102053.727000", "102053.730000", "102053.732000", "102053.735000", "102105.127000", "102105.130000", "102105.132000", "102105.135000", "102105.137000", "102105.139000", "102105.142000", "102105.144000", "102105.147000", "102105.149000", "102105.152000", "102105.154000", "102105.156000", "102105.161000", "102105.164000", "102105.166000", "102105.169000", "102105.171000", "102105.174000"], "InstanceCreationTime": ["101613.661000", "101613.664000", "101613.666000", "101613.674000", "101613.676000", "101613.678000", "101613.681000", "101613.683000", "101613.686000", "101613.688000", "101613.690000", "101613.693000", "101613.695000", "101613.697000", "101613.700000", "101613.702000", "101613.704000", "101613.707000", "101613.709000", "101613.712000", "101613.714000", "101613.719000", "101613.722000", "101613.724000", "101613.727000", "101613.729000", "101613.731000", "101613.734000", "101613.736000", "101613.738000", "101613.741000", "101613.743000", "101633.656000", "101633.659000", "101633.661000", "101633.664000", "101633.666000", "101633.668000", "101633.671000", "101633.673000", "101633.675000", "101633.678000", "101633.680000", "101633.682000", "101633.685000", "101633.687000", "101633.690000", "101633.692000", "101633.694000", "101633.697000", "101633.721000", "101633.724000", "101633.726000", "101633.728000", "101633.731000", "101633.733000", "101633.735000", "101633.738000", "101633.740000", "101633.743000", "101633.745000", "101633.747000", "101633.750000", "101633.752000", "101653.656000", "101653.659000", "101653.661000", "101653.663000", "101653.666000", "101653.668000", "101653.671000", "101653.674000", "101653.676000", "101653.678000", "101653.681000", "101653.683000", "101653.685000", "101653.688000", "101653.690000", "101653.693000", "101653.695000", "101653.698000", "101653.700000", "101653.702000", "101653.705000", "101653.707000", "101653.710000", "101653.712000", "101653.714000", "101653.717000", "101653.719000", "101653.721000", "101653.724000", "101653.726000", "101653.729000", "101653.731000", "101653.733000", "101713.656000", "101713.675000", "101713.678000", "101713.680000", "101713.683000", "101713.685000", "101713.688000", "101713.690000", "101713.692000", "101713.695000", "101713.697000", "101713.700000", "101713.702000", "101713.704000", "101713.707000", "101713.709000", "101713.712000", "101713.714000", "101713.716000", "101713.719000", "101713.721000", "101713.724000", "101713.726000", "101713.729000", "101713.731000", "101713.733000", "101713.740000", "101713.743000", "101713.745000", "101713.747000", "101713.750000", "101713.752000", "101713.755000", "101733.656000", "101733.659000", "101733.661000", "101733.664000", "101733.666000", "101733.668000", "101733.671000", "101733.673000", "101733.676000", "101733.678000", "101733.680000", "101733.683000", "101733.685000", "101733.687000", "101733.690000", "101733.692000", "101733.694000", "101733.697000", "101733.699000", "101733.702000", "101733.704000", "101733.706000", "101733.709000", "101733.711000", "101733.714000", "101733.716000", "101733.718000", "101733.721000", "101733.723000", "101733.726000", "101733.728000", "101733.730000", "101733.733000", "101753.656000", "101753.659000", "101753.661000", "101753.664000", "101753.667000", "101753.669000", "101753.671000", "101753.674000", "101753.676000", "101753.679000", "101753.681000", "101753.684000", "101753.686000", "101753.689000", "101753.691000", "101753.693000", "101753.696000", "101753.698000", "101753.700000", "101753.703000", "101753.705000", "101753.708000", "101753.710000", "101753.713000", "101753.715000", "101753.717000", "101753.720000", "101753.722000", "101753.725000", "101753.727000", "101753.729000", "101753.732000", "101753.734000", "101813.655000", "101813.658000", "101813.660000", "101813.671000", "101813.673000", "101813.676000", "101813.678000", "101813.680000", "101813.683000", "101813.685000", "101813.687000", "101813.690000", "101813.692000", "101813.695000", "101813.697000", "101813.699000", "101813.702000", "101813.704000", "101813.706000", "101813.709000", "101813.711000", "101813.713000", "101813.716000", "101813.718000", "101813.721000", "101813.723000", "101813.725000", "101813.728000", "101813.730000", "101813.732000", "101813.735000", "101813.737000", "101833.656000", "101833.659000", "101833.661000", "101833.664000", "101833.666000", "101833.668000", "101833.671000", "101833.673000", "101833.676000", "101833.678000", "101833.681000", "101833.683000", "101833.686000", "101833.688000", "101833.695000", "101833.697000", "101833.700000", "101833.702000", "101833.704000", "101833.707000", "101833.709000", "101833.712000", "101833.715000", "101833.717000", "101833.720000", "101833.722000", "101833.724000", "101833.727000", "101833.729000", "101833.732000", "101833.734000", "101833.736000", "101833.739000", "101853.656000", "101853.659000", "101853.662000", "101853.664000", "101853.666000", "101853.669000", "101853.671000", "101853.673000", "101853.676000", "101853.679000", "101853.681000", "101853.683000", "101853.686000", "101853.688000", "101853.691000", "101853.693000", "101853.696000", "101853.698000", "101853.701000", "101853.703000", "101853.705000", "101853.708000", "101853.710000", "101853.712000", "101853.715000", "101853.717000", "101853.720000", "101853.722000", "101853.725000", "101853.727000", "101853.729000", "101853.732000", "101853.734000", "101913.656000", "101913.659000", "101913.661000", "101913.664000", "101913.667000", "101913.669000", "101913.672000", "101913.674000", "101913.677000", "101913.679000", "101913.681000", "101913.684000", "101913.686000", "101913.689000", "101913.691000", "101913.693000", "101913.696000", "101913.698000", "101913.701000", "101913.703000", "101913.705000", "101913.708000", "101913.710000", "101913.713000", "101913.715000", "101913.71