{"AcquisitionMatrixPE": 64, "AcquisitionNumber": 1, "AcquisitionTime": "10:26:40.712500", "BandwidthPerPixelPhaseEncode": 28.935, "BaseResolution": 64, "BodyPartExamined": "BRAIN", "CoilCombinationMethod": "Sum of Squares", "ConsistencyInfo": "N4_VE11E_LATEST_20181129", "ConversionSoftware": "dcm2niix", "ConversionSoftwareVersion": "v1.0.20230411", "DerivedVendorReportedEchoSpacing": 0.000540003, "DeviceSerialNumber": "166182", "DwellTime": 3.4e-06, "EchoTime": 0.032, "EchoTrainLength": 64, "EffectiveEchoSpacing": 0.000540003, "FlipAngle": 40, "HeudiconvVersion": "0.13.1", "ImageOrientationPatientDICOM": [0.999125, 0.00484521, -0.0415338, -0.00889362, 0.995161, -0.0978498], "ImageOrientationText": "Tra>Cor(-5.6)>Sag(-2.3)", "ImageType": ["ORIGINAL", "PRIMARY", "M", "ND", "NORM", "MOSAIC"], "ImagingFrequency": 123.255784, "InPlanePhaseEncodingDirectionDICOM": "COL", "InstitutionAddress": "PEARSE STREET .,City,District,IE,D2", "InstitutionName": "TCIN", "InstitutionalDepartmentName": "MRI", "MRAcquisitionType": "2D", "MagneticFieldStrength": 3, "Manufacturer": "Siemens", "ManufacturersModelName": "Prisma", "Modality": "MR", "MultibandAccelerationFactor": 4, "NonlinearGradientCorrection": false, "PartialFourier": 1, "PatientPosition": "HFS", "PercentPhaseFOV": 100, "PercentSampling": 100, "PhaseEncodingDirection": "j-", "PhaseEncodingSteps": 64, "PhaseResolution": 1, "PixelBandwidth": 2300, "ProcedureStepDescription": "Rhodri^Head BOLD", "ProtocolName": "cmrr_mbep2d_Pictures_AP_RDS", "PulseSequenceDetails": "%SiemensSeq%\\ep2d_bold", "ReceiveCoilActiveElements": "HC2,4,6,7;SC", "ReceiveCoilName": "SpecialPurpose_4", "ReconMatrixPE": 64, "RefLinesPE": 12, "RepetitionTime": 0.61, "SAR": 0.292953, "ScanOptions": "FS", "ScanningSequence": "EP", "SequenceName": "*epfid2d1_64", "SequenceVariant": "SK", "SeriesDescription": "cmrr_mbep2d_Pictures_AP_RDS", "SeriesNumber": 10, "ShimSetting": [-3569, -7472, 3893, 970, -250, -73, 229, -17], "SliceThickness": 3, "SliceTiming": [0.2625, 0, 0.3275, 0.0675, 0.395, 0.1325, 0.46, 0.1975, 0.525, 0.2625, 0, 0.3275, 0.0675, 0.395, 0.1325, 0.46, 0.1975, 0.525, 0.2625, 0, 0.3275, 0.0675, 0.395, 0.1325, 0.46, 0.1975, 0.525, 0.2625, 0, 0.3275, 0.0675, 0.395, 0.1325, 0.46, 0.1975, 0.525], "SoftwareVersions": "syngo MR E11", "SpacingBetweenSlices": 3.3, "StationName": "AWP166182", "TaskName": "pictures", "TotalReadoutTime": 0.0340202, "TxRefAmp": 225.751, "dcmmeta_affine": [[-2.997375965118408, -0.02668086625635624, -0.1348339021205902, 97.46708679199219], [-0.014535635709762573, 2.9854843616485596, -0.32384076714515686, -101.34049987792969], [-0.12460147589445114, 0.2935492992401123, 3.2813026905059814, -92.80337524414062], [0.0, 0.0, 0.0, 1.0]], "dcmmeta_reorient_transform": [[0.0, -1.0, 0.0, 63.0], [1.0, 0.0, 0.0, 0.0], [0.0, 0.0, 1.0, 0.0], [0.0, 0.0, 0.0, 1.0]], "dcmmeta_shape": [64, 64, 36, 311], "dcmmeta_slice_dim": 2, "dcmmeta_version": 0.6, "global": {"const": {"AcquisitionMatrix": [64, 0, 0, 64], "AngioFlag": "N", "BitsAllocated": 16, "BitsStored": 12, "BodyPartExamined": "BRAIN", "Columns": 384, "EchoNumbers": 1, "EchoTime": 32.0, "EchoTrainLength": 64, "FlipAngle": 40.0, "HighBit": 11, "ImageOrientationPatient": [0.99912535017506, 0.00484521176502, -0.0415338242945, -0.0088936218576, 0.995161457498, -0.0978497675047], "ImagePositionPatient": [-571.09742077093, -566.74821481703, -7.4056486578549], "ImageType": ["ORIGINAL", "PRIMARY", "M", "ND", "NORM", "MOSAIC"], "ImagedNucleus": "1H", "ImagingFrequency": 123.255784, "InPlanePhaseEncodingDirection": "COL", "MRAcquisitionType": "2D", "MagneticFieldStrength": 3.0, "Manufacturer": "SIEMENS", "ManufacturerModelName": "Prisma", "Modality": "MR", "NumberOfAverages": 1.0, "NumberOfPhaseEncodingSteps": 64, "PercentPhaseFieldOfView": 100.0, "PercentSampling": 100.0, "PerformedProcedureStepStartTime": "100724.961000", "PhotometricInterpretation": "MONOCHROME2", "PixelBandwidth": 2300.0, "PixelRepresentation": 0, "PixelSpacing": [3.0, 3.0], "ProtocolName": "cmrr_mbep2d_Pictures_AP_RDS", "RepetitionTime": 610.0, "Rows": 384, "SAR": 0.29295276063543, "SamplesPerPixel": 1, "ScanOptions": "FS", "ScanningSequence": "EP", "SequenceName": "*epfid2d1_64", "SequenceVariant": "SK", "SeriesDescription": "cmrr_mbep2d_Pictures_AP_RDS", "SeriesNumber": 10, "SeriesTime": "102653.569000", "SliceLocation": -86.315045934066, "SliceThickness": 3.0, "SmallestImagePixelValue": 0, "SoftwareVersions": "syngo MR E11", "SpacingBetweenSlices": 3.2999999547008, "SpecificCharacterSet": "ISO_IR 100", "StudyID": "1", "StudyTime": "100724.811000", "TransmitCoilName": "Body", "VariableFlipAngleFlag": "N", "WindowCenterWidthExplanation": "Algo1"}, "slices": {}}, "time": {"samples": {"AcquisitionNumber": [1, 2, 3, 4, 5, 6, 7, 8, 9, 10, 11, 12, 13, 14, 15, 16, 17, 18, 19, 20, 21, 22, 23, 24, 25, 26, 27, 28, 29, 30, 31, 32, 33, 34, 35, 36, 37, 38, 39, 40, 41, 42, 43, 44, 45, 46, 47, 48, 49, 50, 51, 52, 53, 54, 55, 56, 57, 58, 59, 60, 61, 62, 63, 64, 65, 66, 67, 68, 69, 70, 71, 72, 73, 74, 75, 76, 77, 78, 79, 80, 81, 82, 83, 84, 85, 86, 87, 88, 89, 90, 91, 92, 93, 94, 95, 96, 97, 98, 99, 100, 101, 102, 103, 104, 105, 106, 107, 108, 109, 110, 111, 112, 113, 114, 115, 116, 117, 118, 119, 120, 121, 122, 123, 124, 125, 126, 127, 128, 129, 130, 131, 132, 133, 134, 135, 136, 137, 138, 139, 140, 141, 142, 143, 144, 145, 146, 147, 148, 149, 150, 151, 152, 153, 154, 155, 156, 157, 158, 159, 160, 161, 162, 163, 164, 165, 166, 167, 168, 169, 170, 171, 172, 173, 174, 175, 176, 177, 178, 179, 180, 181, 182, 183, 184, 185, 186, 187, 188, 189, 190, 191, 192, 193, 194, 195, 196, 197, 198, 199, 200, 201, 202, 203, 204, 205, 206, 207, 208, 209, 210, 211, 212, 213, 214, 215, 216, 217, 218, 219, 220, 221, 222, 223, 224, 225, 226, 227, 228, 229, 230, 231, 232, 233, 234, 235, 236, 237, 238, 239, 240, 241, 242, 243, 244, 245, 246, 247, 248, 249, 250, 251, 252, 253, 254, 255, 256, 257, 258, 259, 260, 261, 262, 263, 264, 265, 266, 267, 268, 269, 270, 271, 272, 273, 274, 275, 276, 277, 278, 279, 280, 281, 282, 283, 284, 285, 286, 287, 288, 289, 290, 291, 292, 293, 294, 295, 296, 297, 298, 299, 300, 301, 302, 303, 304, 305, 306, 307, 308, 309, 310, 311], "AcquisitionTime": ["102640.712500", "102641.322500", "102641.932500", "102642.542500", "102643.152500", "102643.762500", "102644.372500", "102644.982500", "102645.592500", "102646.202500", "102646.812500", "102647.422500", "102648.032500", "102648.642500", "102649.252500", "102649.862500", "102650.472500", "102651.082500", "102651.692500", "102652.302500", "102652.912500", "102653.522500", "102654.132500", "102654.742500", "102655.352500", "102655.962500", "102656.572500", "102657.182500", "102657.792500", "102658.402500", "102659.012500", "102659.622500", "102700.232500", "102700.842500", "102701.452500", "102702.062500", "102702.672500", "102703.282500", "102703.892500", "102704.502500", "102705.112500", "102705.722500", "102706.332500", "102706.942500", "102707.552500", "102708.162500", "102708.772500", "102709.382500", "102709.992500", "102710.602500", "102711.212500", "102711.822500", "102712.432500", "102713.042500", "102713.652500", "102714.262500", "102714.872500", "102715.482500", "102716.092500", "102716.702500", "102717.312500", "102717.922500", "102718.532500", "102719.142500", "102719.752500", "102720.362500", "102720.972500", "102721.582500", "102722.192500", "102722.802500", "102723.412500", "102724.022500", "102724.632500", "102725.242500", "102725.852500", "102726.462500", "102727.072500", "102727.682500", "102728.292500", "102728.902500", "102729.512500", "102730.122500", "102730.732500", "102731.342500", "102731.952500", "102732.562500", "102733.172500", "102733.782500", "102734.392500", "102735.002500", "102735.612500", "102736.222500", "102736.832500", "102737.442500", "102738.052500", "102738.662500", "102739.272500", "102739.882500", "102740.492500", "102741.102500", "102741.712500", "102742.322500", "102742.932500", "102743.542500", "102744.152500", "102744.762500", "102745.372500", "102745.982500", "102746.592500", "102747.202500", "102747.812500", "102748.422500", "102749.032500", "102749.642500", "102750.252500", "102750.862500", "102751.472500", "102752.082500", "102752.692500", "102753.302500", "102753.912500", "102754.522500", "102755.132500", "102755.742500", "102756.352500", "102756.962500", "102757.572500", "102758.182500", "102758.792500", "102759.402500", "102800.012500", "102800.622500", "102801.232500", "102801.842500", "102802.452500", "102803.062500", "102803.672500", "102804.282500", "102804.892500", "102805.502500", "102806.112500", "102806.722500", "102807.332500", "102807.942500", "102808.552500", "102809.162500", "102809.772500", "102810.382500", "102810.992500", "102811.602500", "102812.212500", "102812.822500", "102813.432500", "102814.042500", "102814.652500", "102815.262500", "102815.872500", "102816.482500", "102817.092500", "102817.702500", "102818.312500", "102818.922500", "102819.532500", "102820.142500", "102820.752500", "102821.362500", "102821.972500", "102822.582500", "102823.192500", "102823.802500", "102824.412500", "102825.022500", "102825.632500", "102826.242500", "102826.852500", "102827.462500", "102828.072500", "102828.682500", "102829.292500", "102829.902500", "102830.512500", "102831.122500", "102831.732500", "102832.342500", "102832.952500", "102833.562500", "102834.172500", "102834.782500", "102835.392500", "102836.002500", "102836.612500", "102837.222500", "102837.832500", "102838.442500", "102839.052500", "102839.662500", "102840.272500", "102840.882500", "102841.492500", "102842.102500", "102842.712500", "102843.322500", "102843.932500", "102844.542500", "102845.152500", "102845.762500", "102846.372500", "102846.982500", "102847.592500", "102848.202500", "102848.812500", "102849.422500", "102850.032500", "102850.642500", "102851.252500", "102851.862500", "102852.472500", "102853.082500", "102853.692500", "102854.302500", "102854.912500", "102855.522500", "102856.132500", "102856.742500", "102857.352500", "102857.962500", "102858.572500", "102859.182500", "102859.792500", "102900.402500", "102901.012500", "102901.622500", "102902.232500", "102902.842500", "102903.452500", "102904.062500", "102904.672500", "102905.282500", "102905.892500", "102906.502500", "102907.112500", "102907.722500", "102908.332500", "102908.942500", "102909.552500", "102910.162500", "102910.772500", "102911.382500", "102911.992500", "102912.602500", "102913.212500", "102913.822500", "102914.432500", "102915.042500", "102915.652500", "102916.262500", "102916.872500", "102917.482500", "102918.092500", "102918.702500", "102919.312500", "102919.922500", "102920.532500", "102921.142500", "102921.752500", "102922.362500", "102922.972500", "102923.582500", "102924.192500", "102924.802500", "102925.412500", "102926.022500", "102926.632500", "102927.242500", "102927.852500", "102928.462500", "102929.072500", "102929.682500", "102930.292500", "102930.902500", "102931.512500", "102932.122500", "102932.732500", "102933.342500", "102933.952500", "102934.562500", "102935.172500", "102935.782500", "102936.392500", "102937.002500", "102937.612500", "102938.222500", "102938.832500", "102939.442500", "102940.052500", "102940.662500", "102941.272500", "102941.882500", "102942.492500", "102943.102500", "102943.712500", "102944.322500", "102944.932500", "102945.542500", "102946.152500", "102946.762500", "102947.372500", "102947.982500", "102948.592500", "102949.202500", "102949.812500"], "ContentTime": ["102653.573000", "102653.576000", "102653.578000", "102653.581000", "102653.583000", "102653.585000", "102653.588000", "102653.597000", "102653.600000", "102653.602000", "102653.611000", "102653.613000", "102653.616000", "102653.619000", "102653.621000", "102653.629000", "102653.632000", "102653.634000", "102653.641000", "102653.644000", "102713.568000", "102713.571000", "102713.573000", "102713.576000", "102713.578000", "102713.580000", "102713.583000", "102713.585000", "102713.588000", "102713.590000", "102713.593000", "102713.595000", "102713.597000", "102713.605000", "102713.607000", "102713.610000", "102713.612000", "102713.614000", "102713.617000", "102713.619000", "102713.622000", "102713.624000", "102713.626000", "102713.629000", "102713.632000", "102713.634000", "102713.650000", "102713.652000", "102713.654000", "102713.657000", "102713.666000", "102713.668000", "102733.568000", "102733.571000", "102733.573000", "102733.576000", "102733.583000", "102733.585000", "102733.588000", "102733.590000", "102733.592000", "102733.595000", "102733.597000", "102733.599000", "102733.602000", "102733.604000", "102733.607000", "102733.610000", "102733.612000", "102733.614000", "102733.617000", "102733.619000", "102733.622000", "102733.624000", "102733.626000", "102733.629000", "102733.631000", "102733.633000", "102733.636000", "102733.638000", "102733.641000", "102733.643000", "102733.646000", "102733.648000", "102733.650000", "102753.569000", "102753.572000", "102753.574000", "102753.576000", "102753.579000", "102753.581000", "102753.583000", "102753.586000", "102753.588000", "102753.591000", "102753.593000", "102753.595000", "102753.598000", "102753.609000", "102753.612000", "102753.614000", "102753.616000", "102753.619000", "102753.621000", "102753.623000", "102753.626000", "102753.628000", "102753.630000", "102753.633000", "102753.635000", "102753.637000", "102753.640000", "102753.642000", "102753.645000", "102753.647000", "102753.649000", "102753.652000", "102753.654000", "102813.569000", "102813.572000", "102813.574000", "102813.576000", "102813.579000", "102813.581000", "102813.583000", "102813.586000", "102813.589000", "102813.591000", "102813.594000", "102813.596000", "102813.599000", "102813.601000", "102813.603000", "102813.606000", "102813.608000", "102813.611000", "102813.613000", "102813.615000", "102813.618000", "102813.620000", "102813.622000", "102813.625000", "102813.627000", "102813.630000", "102813.632000", "102813.634000", "102813.637000", "102813.639000", "102813.641000", "102813.644000", "102813.646000", "102833.568000", "102833.571000", "102833.573000", "102833.576000", "102833.578000", "102833.580000", "102833.583000", "102833.585000", "102833.587000", "102833.590000", "102833.592000", "102833.595000", "102833.597000", "102833.599000", "102833.602000", "102833.604000", "102833.606000", "102833.609000", "102833.611000", "102833.613000", "102833.616000", "102833.618000", "102833.620000", "102833.623000", "102833.625000", "102833.628000", "102833.630000", "102833.632000", "102833.635000", "102833.637000", "102833.639000", "102833.642000", "102833.644000", "102853.568000", "102853.571000", "102853.573000", "102853.576000", "102853.578000", "102853.581000", "102853.583000", "102853.586000", "102853.588000", "102853.591000", "102853.593000", "102853.596000", "102853.598000", "102853.600000", "102853.604000", "102853.606000", "102853.609000", "102853.611000", "102853.613000", "102853.616000", "102853.618000", "102853.621000", "102853.623000", "102853.626000", "102853.628000", "102853.630000", "102853.633000", "102853.635000", "102853.638000", "102853.640000", "102853.643000", "102853.645000", "102913.568000", "102913.571000", "102913.573000", "102913.576000", "102913.578000", "102913.580000", "102913.583000", "102913.585000", "102913.587000", "102913.590000", "102913.592000", "102913.595000", "102913.597000", "102913.599000", "102913.602000", "102913.604000", "102913.606000", "102913.609000", "102913.611000", "102913.614000", "102913.616000", "102913.618000", "102913.621000", "102913.623000", "102913.626000", "102913.628000", "102913.630000", "102913.633000", "102913.635000", "102913.637000", "102913.640000", "102913.642000", "102913.644000", "102933.568000", "102933.571000", "102933.573000", "102933.575000", "102933.578000", "102933.580000", "102933.583000", "102933.585000", "102933.587000", "102933.590000", "102933.592000", "102933.595000", "102933.597000", "102933.599000", "102933.602000", "102933.604000", "102933.606000", "102933.609000", "102933.611000", "102933.613000", "102933.616000", "102933.618000", "102933.620000", "102933.623000", "102933.625000", "102933.627000", "102933.630000", "102933.632000", "102933.635000", "102933.637000", "102933.639000", "102933.642000", "102933.644000", "102951.841000", "102951.843000", "102951.846000", "102951.848000", "102951.851000", "102951.853000", "102951.856000", "102951.858000", "102951.860000", "102951.863000", "102951.865000", "102951.868000", "102951.870000", "102951.875000", "102951.878000", "102951.880000", "102951.883000", "102951.885000", "102951.888000", "102951.890000", "102951.893000", "102951.895000", "102951.898000", "102951.900000", "102951.904000", "102951.906000", "102951.909000", "102951.911000", "102951.913000"], "InstanceCreationTime": ["102653.573000", "102653.576000", "102653.578000", "102653.581000", "102653.583000", "102653.585000", "102653.588000", "102653.597000", "102653.600000", "102653.602000", "102653.611000", "102653.613000", "102653.616000", "102653.619000", "102653.621000", "102653.629000", "102653.632000", "102653.634000", "102653.641000", "102653.644000", "102713.568000", "102713.571000", "102713.573000", "102713.576000", "102713.578000", "102713.580000", "102713.583000", "102713.585000", "102713.588000", "102713.590000", "102713.593000", "102713.595000", "102713.597000", "102713.605000", "102713.607000", "102713.610000", "102713.612000", "102713.614000", "102713.617000", "102713.619000", "102713.622000", "102713.624000", "102713.626000", "102713.629000", "102713.632000", "102713.634000", "102713.650000", "102713.652000", "102713.654000", "102713.657000", "102713.666000", "102713.668000", "102733.568000", "102733.571000", "102733.573000", "102733.576000", "102733.583000", "102733.585000", "102733.588000", "102733.590000", "102733.592000", "102733.595000", "102733.597000", "102733.599000", "102733.602000", "102733.604000", "102733.607000", "102733.610000", "102733.612000", "102733.614000", "102733.617000", "102733.619000", "102733.622000", "102733.624000", "102733.626000", "102733.629000", "102733.631000", "102733.633000", "102733.636000", "102733.638000", "102733.641000", "102733.643000", "102733.646000", "102733.648000", "102733.650000", "102753.569000", "102753.572000", "102753.574000", "102753.576000", "102753.579000", "102753.581000", "102753.583000", "102753.586000", "102753.588000", "102753.591000", "102753.593000", "102753.595000", "102753.598000", "102753.609000", "102753.612000", "102753.614000", "102753.616000", "102753.619000", "102753.621000", "102753.623000", "102753.626000", "102753.628000", "102753.630000", "102753.633000", "102753.635000", "102753.637000", "102753.640000", "102753.642000", "102753.645000", "102753.647000", "102753.649000", "102753.652000", "102753.654000", "102813.569000", "102813.572000", "102813.574000", "102813.576000", "102813.579000", "102813.581000", "102813.583000", "102813.586000", "102813.589000", "102813.591000", "102813.594000", "102813.596000", "102813.599000", "102813.601000", "102813.603000", "102813.606000", "102813.608000", "102813.611000", "102813.613000", "102813.615000", "102813.618000", "102813.620000", "102813.622000", "102813.625000", "102813.627000", "102813.630000", "102813.632000", "102813.634000", "102813.637000", "102813.639000", "102813.641000", "102813.644000", "102813.646000", "102833.568000", "102833.571000", "102833.573000", "102833.576000", "102833.578000", "102833.580000", "102833.583000", "102833.585000", "102833.587000", "102833.590000", "102833.592000", "102833.595000", "102833.597000", "102833.599000", "102833.602000", "102833.604000", "102833.606000", "102833.609000", "102833.611000", "102833.613000", "102833.616000", "102833.618000", "102833.620000", "102833.623000", "102833.625000", "102833.628000", "102833.630000", "102833.632000", "102833.635000", "102833.637000", "102833.639000", "102833.642000", "102833.644000", "102853.568000", "102853.571000", "102853.573000", "102853.576000", "102853.578000", "102853.581000", "102853.583000", "102853.586000", "102853.588000", "102853.591000", "102853.593000", "102853.596000", "102853.598000", "102853.600000", "102853.604000", "102853.606000", "102853.609000", "102853.611000", "102853.613000", "102853.616000", "102853.618000", "102853.621000", "102853.623000", "102853.626000", "102853.628000", "102853.630000", "102853.633000", "102853.635000", "102853.638000", "102853.640000", "102853.643000", "102853.645000", "102913.568000", "102913.571000", "102913.573000", "102913.576000", "102913.578000", "102913.580000", "102913.583000", "102913.585000", "102913.587000", "102913.590000", "102913.592000", "102913.595000", "102913.597000", "102913.599000", "102913.602000", "102913.604000", "102913.606000", "102913.609000", "102913.611000", "102913.614000", "102913.616000", "102913.618000", "102913.621000", "102913.623000", "102913.626000", "102913.628000", "102913.630000", "102913.633000", "102913.635000", "102913.637000", "102913.640000", "102913.642000", "102913.644000", "102933.568000", "102933.571000", "102933.573000", "102933.575000", "102933.578000", "102933.580000", "102933.583000", "102933.585000", "102933.587000", "102933.590000", "102933.592000", "102933.595000", "102933.597000", "102933.599000", "102933.602000", "102933.604000", "102933.606000", "102933.609000", "102933.611000", "102933.613000", "102933.616000", "102933.618000", "102933.620000", "102933.623000", "102933.625000", "102933.627000", "102933.630000", "102933.632000", "102933.635000", "102933.637000", "102933.639000", "102933.642000", "102933.644000", "102951.841000", "102951.843000", "102951.846000", "102951.848000", "102951.851000", "102951.853000", "102951.856000", "102951.858000", "102951.860000", "102951.863000", "102951.865000", "102951.868000", "102951.870000", "102951.875000", "102951.878000", "102951.880000", "102951.883000", "102951.885000", "102951.888000", "102951.890000", "102951.893000", "102951.895000", "102951.898000", "102951.900000", "102951.904000", "102951.906000", "102951.909000", "102951.911000", "102951.913000"], "InstanceNumber": [1, 2, 3, 4, 5, 6, 7, 8, 9, 10, 11, 12, 13, 14, 15, 16, 17, 18, 19, 20, 21, 22, 23, 24, 25, 26, 27, 28, 29, 30, 31, 32, 33, 34, 35, 36, 37, 38, 39, 40, 41, 42, 43, 44, 45, 46, 47, 48, 49, 50, 51, 52, 53, 54, 55, 56, 57, 58, 59, 60, 61, 62, 63, 64, 65, 66, 67, 68, 69, 70, 71, 72, 73, 74, 75, 76, 77, 78, 79, 80, 81, 82, 83, 84, 85, 86, 87, 88, 89, 90, 91, 92, 93, 94, 95, 96, 97, 98, 99, 100, 101, 102, 103, 104, 105, 106, 107, 108, 109, 110, 111, 112, 113, 114, 115, 116, 117, 118, 119, 120, 121, 122, 123, 124, 125, 126, 127, 128, 129, 130, 131, 132, 133, 134, 135, 136, 137, 138, 139, 140, 141, 142, 143, 144, 145, 146, 147, 148, 149, 150, 151, 152, 153, 154, 155, 156, 157, 158, 159, 160, 161, 162, 163, 164, 165, 166, 167, 168, 169, 170, 171, 172, 173, 174, 175, 176, 177, 178, 179, 180, 181, 182, 183, 184, 185, 186, 187, 188, 189, 190, 191, 192, 193, 194, 195, 196, 197, 198, 199, 200, 201, 202, 203, 204, 205, 206, 207, 208, 209, 210, 211, 212, 213, 214, 215, 216, 217, 218, 219, 220, 221, 222, 223, 224, 225, 226, 227, 228, 229, 230, 231, 232, 233, 234, 235, 236, 237, 238, 239, 240, 241, 242, 243, 244, 245, 246, 247, 248, 249, 250, 251, 252, 253, 254, 255, 256, 257, 258, 259, 260, 261, 262, 263, 264, 265, 266, 267, 268, 269, 270, 271, 272, 273, 274, 275, 276, 277, 278, 279, 280, 281, 282, 283, 284, 285, 286, 287, 288, 289, 290, 291, 292, 293, 294, 295, 296, 297, 298, 299, 300, 301, 302, 303, 304, 305, 306, 307, 308, 309, 310, 311], "LargestImagePixelValue": [570, 560, 584, 566, 575, 563, 550, 548, 541, 539, 543, 537, 533, 537, 535, 531, 538, 533, 537, 532, 530, 533, 528, 529, 541, 528, 531, 529, 535, 536, 532, 547, 555, 539, 530, 536, 544, 533, 540, 535, 534, 525, 528, 528, 541, 554, 551, 544, 542, 536, 527, 532, 542, 537, 534, 531, 526, 527, 531, 539, 544, 541, 543, 527, 551, 539, 561, 586, 597, 583, 540, 560, 561, 541, 544, 595, 548, 602, 566, 545, 560, 559, 557, 590, 567, 558, 503, 506, 594, 579, 584, 569, 567, 576, 557, 569, 554, 550, 553, 554, 555, 570, 538, 563, 571, 553, 550, 569, 543, 561, 557, 544, 540, 535, 540, 546, 541, 537, 542, 542, 540, 537, 549, 538, 540, 536, 539, 542, 534, 535, 537, 535, 539, 537, 535, 539, 539, 538, 541, 542, 539, 540, 539, 535, 538, 539, 538, 538, 535, 536, 548, 544, 540, 535, 543, 544, 541, 544, 538, 540, 541, 539, 536, 539, 535, 545, 542, 547, 544, 541, 544, 541, 540, 542, 540, 548, 553, 547, 555, 569, 549, 551, 549, 549, 545, 550, 553, 548, 550, 551, 550, 550, 546, 552, 548, 551, 551, 551, 551, 549, 549, 555, 551, 551, 548, 549, 549, 548, 549, 546, 553, 554, 550, 558, 556, 574, 565, 567, 561, 563, 562, 560, 559, 559, 563, 563, 561, 559, 560, 560, 557, 556, 554, 551, 549, 553, 552, 554, 557, 555, 556, 553, 548, 554, 552, 553, 550, 548, 546, 551, 547, 553, 548, 558, 550, 549, 548, 546, 548, 547, 547, 547, 548, 546, 552, 547, 548, 547, 548, 549, 550, 550, 549, 553, 549, 556, 549, 553, 552, 550, 550, 550, 554, 551, 554, 551, 555, 552, 551, 552, 555, 552, 551, 560, 552, 554, 553, 558, 553, 553, 552, 555, 557, 553, 554, 552, 554, 552, 554, 556, 553], "WindowCenter": [319.0, 317.0, 316.0, 318.0, 315.0, 314.0, 311.0, 310.0, 310.0, 310.0, 310.0, 310.0, 311.0, 310.0, 311.0, 311.0, 311.0, 311.0, 311.0, 311.0, 311.0, 311.0, 311.0, 311.0, 313.0, 311.0, 312.0, 311.0, 311.0, 312.0, 312.0, 313.0, 314.0, 312.0, 310.0, 312.0, 312.0, 310.0, 311.0, 310.0, 311.0, 310.0, 310.0, 311.0, 313.0, 312.0, 311.0, 311.0, 313.0, 311.0, 311.0, 312.0, 311.0, 311.0, 310.0, 310.0, 310.0, 311.0, 312.0, 311.0, 311.0, 313.0, 314.0, 311.0, 312.0, 310.0, 304.0, 308.0, 313.0, 311.0, 315.0, 311.0, 312.0, 309.0, 308.0, 310.0, 315.0, 314.0, 310.0, 309.0, 308.0, 308.0, 309.0, 316.0, 313.0, 299.0, 294.0, 296.0, 329.0, 314.0, 318.0, 313.0, 312.0, 313.0, 312.0, 312.0, 311.0, 311.0, 311.0, 311.0, 311.0, 312.0, 312.0, 308.0, 312.0, 311.0, 313.0, 315.0, 314.0, 313.0, 311.0, 310.0, 312.0, 311.0, 311.0, 311.0, 311.0, 312.0, 311.0, 312.0, 312.0, 311.0, 312.0, 312.0, 311.0, 311.0, 313.0, 313.0, 311.0, 312.0, 312.0, 311.0, 313.0, 312.0, 311.0, 312.0, 312.0, 311.0, 311.0, 311.0, 312.0, 312.0, 313.0, 313.0, 312.0, 313.0, 312.0, 312.0, 312.0, 311.0, 311.0, 311.0, 311.0, 311.0, 311.0, 313.0, 312.0, 312.0, 312.0, 312.0, 312.0, 312.0, 312.0, 313.0, 312.0, 313.0, 312.0, 313.0, 312.0, 313.0, 313.0, 313.0, 312.0, 313.0, 314.0, 313.0, 313.0, 313.0, 312.0, 313.0, 314.0, 313.0, 311.0, 311.0, 311.0, 312.0, 312.0, 311.0, 312.0, 312.0, 313.0, 312.0, 312.0, 312.0, 312.0, 311.0, 312.0, 311.0, 312.0, 311.0, 310.0, 311.0, 311.0, 311.0, 311.0, 311.0, 312.0, 312.0, 311.0, 311.0, 312.0, 312.0, 313.0, 314.0, 313.0, 315.0, 315.0, 314.0, 314.0, 314.0, 314.0, 314.0, 314.0, 314.0, 314.0, 313.0, 312.0, 312.0, 312.0, 312.0, 311.0, 311.0, 311.0, 311.0, 311.0, 310.0, 311.0, 310.0, 310.0, 310.0, 311.0, 310.0, 310.0, 311.0, 311.0, 311.0, 311.0, 310.0, 310.0, 310.0, 310.0, 311.0, 310.0, 311.0, 310.0, 311.0, 310.0, 311.0, 311.0, 311.0, 311.0, 311.0, 311.0, 311.0, 312.0, 311.0, 311.0, 311.0, 311.0, 311.0, 312.0, 312.0, 312.0, 312.0, 312.0, 313.0, 312.0, 313.0, 312.0, 313.0, 313.0, 312.0, 313.0, 313.0, 313.0, 313.0, 312.0, 313.0, 312.0, 313.0, 312.0, 313.0, 312.0, 314.0, 312.0, 313.0, 313.0, 313.0, 313.0, 313.0, 313.0, 313.0, 313.0, 313.0, 313.0, 313.0, 313.0, 313.0, 313.0, 313.0, 313.0], "WindowWidth": [687.0, 682.0, 681.0, 685.0, 678.0, 678.0, 671.0, 669.0, 669.0, 669.0, 669.0, 669.0, 670.0, 669.0, 670.0, 670.0, 671.0, 671.0, 671.0, 671.0, 671.0, 672.0, 671.0, 671.0, 675.0, 672.0, 672.0, 670.0, 671.0, 672.0, 672.0, 674.0, 678.0, 674.0, 669.0, 673.0, 673.0, 670.0, 670.0, 669.0, 670.0, 668.0, 668.0, 670.0, 674.0, 673.0, 672.0, 672.0, 674.0, 672.0, 671.0, 673.0, 672.0, 672.0, 670.0, 669.0, 669.0, 670.0, 673.0, 672.0, 671.0, 674.0, 676.0, 671.0, 673.0, 670.0, 657.0, 665.0, 676.0, 671.0, 679.0, 671.0, 672.0, 667.0, 666.0, 669.0, 678.0, 677.0, 670.0, 669.0, 667.0, 666.0, 668.0, 680.0, 674.0, 648.0, 637.0, 643.0, 704.0, 676.0, 684.0, 676.0, 672.0, 675.0, 673.0, 673.0, 671.0, 672.0, 670.0, 671.0, 672.0, 672.0, 673.0, 666.0, 673.0, 672.0, 675.0, 679.0, 676.0, 676.0, 672.0, 669.0, 672.0, 670.0, 671.0, 672.0, 672.0, 673.0, 672.0, 673.0, 673.0, 672.0, 673.0, 673.0, 672.0, 672.0, 675.0, 674.0, 672.0, 672.0, 673.0, 672.0, 674.0, 673.0, 672.0, 674.0, 673.0, 672.0, 672.0, 672.0, 673.0, 673.0, 674.0, 674.0, 673.0, 674.0, 674.0, 673.0, 673.0, 672.0, 672.0, 672.0, 671.0, 671.0, 672.0, 674.0, 674.0, 673.0, 673.0, 673.0, 674.0, 673.0, 673.0, 674.0, 673.0, 675.0, 673.0, 675.0, 674.0, 675.0, 675.0, 675.0, 673.0, 676.0, 676.0, 676.0, 676.0, 674.0, 672.0, 675.0, 676.0, 675.0, 671.0, 671.0, 671.0, 673.0, 672.0, 672.0, 673.0, 673.0, 674.0, 673.0, 673.0, 673.0, 673.0, 672.0, 673.0, 672.0, 673.0, 671.0, 670.0, 671.0, 672.0, 672.0, 672.0, 672.0, 672.0, 673.0, 672.0, 672.0, 673.0, 673.0, 675.0, 676.0, 674.0, 679.0, 678.0, 677.0, 677.0, 676.0, 677.0, 676.0, 676.0, 676.0, 676.0, 675.0, 674.0, 673.0, 673.0, 673.0, 671.0, 672.0, 670.0, 670.0, 671.0, 670.0, 671.0, 669.0, 669.0, 670.0, 670.0, 670.0, 670.0, 670.0, 671.0, 670.0, 671.0, 670.0, 670.0, 670.0, 669.0, 670.0, 670.0, 671.0, 670.0, 670.0, 670.0, 670.0, 670.0, 671.0, 671.0, 672.0, 672.0, 672.0, 673.0, 672.0, 672.0, 672.0, 672.0, 672.0, 673.0, 673.0, 673.0, 674.0, 673.0, 674.0, 673.0, 674.0, 673.0, 675.0, 674.0, 673.0, 675.0, 674.0, 674.0, 674.0, 674.0, 674.0, 673.0, 674.0, 673.0, 674.0, 673.0, 676.0, 674.0, 675.0, 674.0, 674.0, 674.0, 674.0, 674.0, 674.0, 675.0, 675.0, 674.0, 674.0, 674.0, 675.0, 674.0, 675.0, 674.0]}, "slices": {}}, "EventTimestamp": "10-29-31"}