{"AcquisitionMatrixPE": 64, "AcquisitionNumber": 1, "AcquisitionTime": "09:53:5.737500", "BandwidthPerPixelPhaseEncode": 28.935, "BaseResolution": 64, "BodyPartExamined": "BRAIN", "CoilCombinationMethod": "Sum of Squares", "ConsistencyInfo": "N4_VE11E_LATEST_20181129", "ConversionSoftware": "dcm2niix", "ConversionSoftwareVersion": "v1.0.20230411", "DerivedVendorReportedEchoSpacing": 0.000540003, "DeviceSerialNumber": "166182", "DwellTime": 3.4e-06, "EchoTime": 0.032, "EchoTrainLength": 64, "EffectiveEchoSpacing": 0.000540003, "FlipAngle": 40, "HeudiconvVersion": "0.13.1", "ImageOrientationPatientDICOM": [0.994588, 0.094481, 0.0432248, -0.0927904, 0.994899, -0.0395785], "ImageOrientationText": "Tra>Sag(2.7)>Cor(-2.0)", "ImageType": ["ORIGINAL", "PRIMARY", "M", "ND", "NORM", "MOSAIC"], "ImagingFrequency": 123.253088, "InPlanePhaseEncodingDirectionDICOM": "COL", "InstitutionAddress": "PEARSE STREET .,City,District,IE,D2", "InstitutionName": "TCIN", "InstitutionalDepartmentName": "MRI", "MRAcquisitionType": "2D", "MagneticFieldStrength": 3, "Manufacturer": "Siemens", "ManufacturersModelName": "Prisma", "Modality": "MR", "MultibandAccelerationFactor": 4, "NonlinearGradientCorrection": false, "PartialFourier": 1, "PatientPosition": "HFS", "PercentPhaseFOV": 100, "PercentSampling": 100, "PhaseEncodingDirection": "j-", "PhaseEncodingSteps": 64, "PhaseResolution": 1, "PixelBandwidth": 2300, "ProcedureStepDescription": "Rhodri^Head BOLD", "ProtocolName": "cmrr_mbep2d_Pictures_AP_RDS", "PulseSequenceDetails": "%SiemensSeq%\\ep2d_bold", "ReceiveCoilActiveElements": "HC2,4,6,7", "ReceiveCoilName": "HeadNeck_64", "ReconMatrixPE": 64, "RefLinesPE": 12, "RepetitionTime": 0.61, "SAR": 0.247127, "ScanOptions": "FS", "ScanningSequence": "EP", "SequenceName": "*epfid2d1_64", "SequenceVariant": "SK", "SeriesDescription": "cmrr_mbep2d_Pictures_AP_RDS", "SeriesNumber": 8, "ShimSetting": [-3614, -7382, 4000, 695, -15, 622, -32, 298], "SliceThickness": 3, "SliceTiming": [0.2625, 0, 0.33, 0.0675, 0.395, 0.1325, 0.46, 0.1975, 0.525, 0.2625, 0, 0.33, 0.0675, 0.395, 0.1325, 0.46, 0.1975, 0.525, 0.2625, 0, 0.33, 0.0675, 0.395, 0.1325, 0.46, 0.1975, 0.525, 0.2625, 0, 0.33, 0.0675, 0.395, 0.1325, 0.46, 0.1975, 0.525], "SoftwareVersions": "syngo MR E11", "SpacingBetweenSlices": 3.3, "StationName": "AWP166182", "TaskName": "pictures", "TotalReadoutTime": 0.0340202, "TxRefAmp": 249.724, "dcmmeta_affine": [[-2.9837634563446045, -0.2783712148666382, 0.15425415337085724, 104.18744659423828], [-0.283442884683609, 2.98469614982605, -0.11666643619537354, -84.1347427368164], [0.1296743005514145, 0.11873554438352585, 3.294327735900879, -87.71080017089844], [0.0, 0.0, 0.0, 1.0]], "dcmmeta_reorient_transform": [[0.0, -1.0, 0.0, 63.0], [1.0, 0.0, 0.0, 0.0], [0.0, 0.0, 1.0, 0.0], [0.0, 0.0, 0.0, 1.0]], "dcmmeta_shape": [64, 64, 36, 298], "dcmmeta_slice_dim": 2, "dcmmeta_version": 0.6, "global": {"const": {"AcquisitionMatrix": [64, 0, 0, 64], "AngioFlag": "N", "BitsAllocated": 16, "BitsStored": 12, "BodyPartExamined": "BRAIN", "Columns": 384, "EchoNumbers": 1, "EchoTime": 32.0, "EchoTrainLength": 64, "FlipAngle": 40.0, "HighBit": 11, "ImageOrientationPatient": [0.99458783838067, 0.09448095747878, 0.04322476627066, -0.09279040915, 0.99489872907884, -0.0395785149682], "ImagePositionPatient": [-519.51282419211, -626.80336678364, -81.980665249722], "ImageType": ["ORIGINAL", "PRIMARY", "M", "ND", "NORM", "MOSAIC"], "ImagedNucleus": "1H", "ImagingFrequency": 123.253088, "InPlanePhaseEncodingDirection": "COL", "MRAcquisitionType": "2D", "MagneticFieldStrength": 3.0, "Manufacturer": "SIEMENS", "ManufacturerModelName": "Prisma", "Modality": "MR", "NumberOfAverages": 1.0, "NumberOfPhaseEncodingSteps": 64, "PercentPhaseFieldOfView": 100.0, "PercentSampling": 100.0, "PerformedProcedureStepStartTime": "094022.243000", "PhotometricInterpretation": "MONOCHROME2", "PixelBandwidth": 2300.0, "PixelRepresentation": 0, "PixelSpacing": [3.0, 3.0], "ProtocolName": "cmrr_mbep2d_Pictures_AP_RDS", "RepetitionTime": 610.0, "Rows": 384, "SAR": 0.24712701248338, "SamplesPerPixel": 1, "ScanOptions": "FS", "ScanningSequence": "EP", "SequenceName": "*epfid2d1_64", "SequenceVariant": "SK", "SeriesDescription": "cmrr_mbep2d_Pictures_AP_RDS", "SeriesNumber": 8, "SeriesTime": "095331.229000", "SliceLocation": -79.715478651142, "SliceThickness": 3.0, "SmallestImagePixelValue": 0, "SoftwareVersions": "syngo MR E11", "SpacingBetweenSlices": 3.3000000138729, "SpecificCharacterSet": "ISO_IR 100", "StudyID": "1", "StudyTime": "094022.054000", "TransmitCoilName": "Body", "VariableFlipAngleFlag": "N", "WindowCenterWidthExplanation": "Algo1"}, "slices": {}}, "time": {"samples": {"AcquisitionNumber": [1, 2, 3, 4, 5, 6, 7, 8, 9, 10, 11, 12, 13, 14, 15, 16, 17, 18, 19, 20, 21, 22, 23, 24, 25, 26, 27, 28, 29, 30, 31, 32, 33, 34, 35, 36, 37, 38, 39, 40, 41, 42, 43, 44, 45, 46, 47, 48, 49, 50, 51, 52, 53, 54, 55, 56, 57, 58, 59, 60, 61, 62, 63, 64, 65, 66, 67, 68, 69, 70, 71, 72, 73, 74, 75, 76, 77, 78, 79, 80, 81, 82, 83, 84, 85, 86, 87, 88, 89, 90, 91, 92, 93, 94, 95, 96, 97, 98, 99, 100, 101, 102, 103, 104, 105, 106, 107, 108, 109, 110, 111, 112, 113, 114, 115, 116, 117, 118, 119, 120, 121, 122, 123, 124, 125, 126, 127, 128, 129, 130, 131, 132, 133, 134, 135, 136, 137, 138, 139, 140, 141, 142, 143, 144, 145, 146, 147, 148, 149, 150, 151, 152, 153, 154, 155, 156, 157, 158, 159, 160, 161, 162, 163, 164, 165, 166, 167, 168, 169, 170, 171, 172, 173, 174, 175, 176, 177, 178, 179, 180, 181, 182, 183, 184, 185, 186, 187, 188, 189, 190, 191, 192, 193, 194, 195, 196, 197, 198, 199, 200, 201, 202, 203, 204, 205, 206, 207, 208, 209, 210, 211, 212, 213, 214, 215, 216, 217, 218, 219, 220, 221, 222, 223, 224, 225, 226, 227, 228, 229, 230, 231, 232, 233, 234, 235, 236, 237, 238, 239, 240, 241, 242, 243, 244, 245, 246, 247, 248, 249, 250, 251, 252, 253, 254, 255, 256, 257, 258, 259, 260, 261, 262, 263, 264, 265, 266, 267, 268, 269, 270, 271, 272, 273, 274, 275, 276, 277, 278, 279, 280, 281, 282, 283, 284, 285, 286, 287, 288, 289, 290, 291, 292, 293, 294, 295, 296, 297, 298], "AcquisitionTime": ["095305.737500", "095306.347500", "095306.957500", "095307.567500", "095308.177500", "095308.787500", "095309.397500", "095310.007500", "095310.617500", "095311.227500", "095311.837500", "095312.447500", "095313.057500", "095313.667500", "095314.277500", "095314.887500", "095315.497500", "095316.107500", "095316.717500", "095317.327500", "095317.937500", "095318.547500", "095319.157500", "095319.767500", "095320.377500", "095320.987500", "095321.597500", "095322.207500", "095322.817500", "095323.427500", "095324.037500", "095324.647500", "095325.257500", "095325.867500", "095326.477500", "095327.087500", "095327.697500", "095328.307500", "095328.917500", "095329.527500", "095330.137500", "095330.747500", "095331.357500", "095331.967500", "095332.577500", "095333.187500", "095333.797500", "095334.407500", "095335.017500", "095335.627500", "095336.237500", "095336.847500", "095337.457500", "095338.067500", "095338.677500", "095339.287500", "095339.897500", "095340.507500", "095341.117500", "095341.727500", "095342.337500", "095342.947500", "095343.557500", "095344.167500", "095344.777500", "095345.387500", "095345.997500", "095346.607500", "095347.217500", "095347.827500", "095348.437500", "095349.047500", "095349.657500", "095350.267500", "095350.877500", "095351.487500", "095352.097500", "095352.707500", "095353.317500", "095353.927500", "095354.537500", "095355.147500", "095355.757500", "095356.367500", "095356.977500", "095357.587500", "095358.197500", "095358.807500", "095359.417500", "095400.027500", "095400.637500", "095401.247500", "095401.857500", "095402.467500", "095403.077500", "095403.687500", "095404.297500", "095404.907500", "095405.517500", "095406.127500", "095406.737500", "095407.347500", "095407.957500", "095408.567500", "095409.177500", "095409.787500", "095410.397500", "095411.007500", "095411.617500", "095412.227500", "095412.837500", "095413.447500", "095414.057500", "095414.667500", "095415.277500", "095415.887500", "095416.497500", "095417.107500", "095417.717500", "095418.327500", "095418.937500", "095419.547500", "095420.157500", "095420.767500", "095421.377500", "095421.987500", "095422.597500", "095423.207500", "095423.817500", "095424.427500", "095425.037500", "095425.647500", "095426.257500", "095426.867500", "095427.477500", "095428.087500", "095428.697500", "095429.307500", "095429.917500", "095430.527500", "095431.137500", "095431.747500", "095432.357500", "095432.967500", "095433.577500", "095434.187500", "095434.797500", "095435.407500", "095436.017500", "095436.627500", "095437.237500", "095437.847500", "095438.457500", "095439.067500", "095439.677500", "095440.287500", "095440.897500", "095441.507500", "095442.117500", "095442.727500", "095443.337500", "095443.947500", "095444.557500", "095445.167500", "095445.777500", "095446.387500", "095446.997500", "095447.607500", "095448.217500", "095448.827500", "095449.437500", "095450.047500", "095450.657500", "095451.267500", "095451.877500", "095452.487500", "095453.097500", "095453.707500", "095454.317500", "095454.927500", "095455.537500", "095456.147500", "095456.757500", "095457.367500", "095457.977500", "095458.587500", "095459.197500", "095459.807500", "095500.417500", "095501.027500", "095501.637500", "095502.247500", "095502.857500", "095503.467500", "095504.077500", "095504.687500", "095505.297500", "095505.907500", "095506.517500", "095507.127500", "095507.737500", "095508.347500", "095508.957500", "095509.567500", "095510.177500", "095510.787500", "095511.397500", "095512.007500", "095512.617500", "095513.227500", "095513.837500", "095514.447500", "095515.057500", "095515.667500", "095516.277500", "095516.887500", "095517.497500", "095518.107500", "095518.717500", "095519.327500", "095519.937500", "095520.547500", "095521.157500", "095521.767500", "095522.377500", "095522.987500", "095523.597500", "095524.207500", "095524.817500", "095525.427500", "095526.037500", "095526.647500", "095527.257500", "095527.867500", "095528.477500", "095529.087500", "095529.697500", "095530.307500", "095530.917500", "095531.527500", "095532.137500", "095532.747500", "095533.357500", "095533.967500", "095534.577500", "095535.187500", "095535.797500", "095536.407500", "095537.017500", "095537.627500", "095538.237500", "095538.847500", "095539.457500", "095540.067500", "095540.677500", "095541.287500", "095541.897500", "095542.507500", "095543.117500", "095543.727500", "095544.337500", "095544.947500", "095545.557500", "095546.167500", "095546.777500", "095547.387500", "095547.997500", "095548.607500", "095549.217500", "095549.827500", "095550.437500", "095551.047500", "095551.657500", "095552.267500", "095552.877500", "095553.487500", "095554.097500", "095554.707500", "095555.317500", "095555.927500", "095556.537500", "095557.147500", "095557.757500", "095558.367500", "095558.977500", "095559.587500", "095600.197500", "095600.807500", "095601.417500", "095602.027500", "095602.637500", "095603.247500", "095603.857500", "095604.467500", "095605.077500", "095605.687500", "095606.297500", "095606.907500"], "ContentTime": ["095331.233000", "095331.239000", "095331.241000", "095331.243000", "095331.246000", "095331.248000", "095331.250000", "095331.253000", "095331.255000", "095331.258000", "095331.260000", "095331.263000", "095331.266000", "095331.268000", "095331.271000", "095331.273000", "095331.276000", "095331.280000", "095331.283000", "095331.285000", "095331.288000", "095331.290000", "095331.292000", "095331.295000", "095331.297000", "095331.300000", "095331.303000", "095331.306000", "095331.308000", "095331.310000", "095331.313000", "095331.315000", "095331.318000", "095331.320000", "095331.322000", "095331.325000", "095331.327000", "095331.330000", "095331.332000", "095331.335000", "095331.338000", "095351.229000", "095351.231000", "095351.234000", "095351.236000", "095351.239000", "095351.241000", "095351.243000", "095351.246000", "095351.255000", "095351.257000", "095351.260000", "095351.262000", "095351.265000", "095351.267000", "095351.269000", "095351.272000", "095351.274000", "095351.277000", "095351.279000", "095351.281000", "095351.284000", "095351.286000", "095351.288000", "095351.291000", "095351.293000", "095351.295000", "095351.298000", "095351.300000", "095351.302000", "095351.305000", "095351.307000", "095351.309000", "095411.227000", "095411.230000", "095411.232000", "095411.235000", "095411.237000", "095411.239000", "095411.242000", "095411.244000", "095411.246000", "095411.249000", "095411.251000", "095411.254000", "095411.256000", "095411.259000", "095411.261000", "095411.263000", "095411.266000", "095411.268000", "095411.271000", "095411.273000", "095411.275000", "095411.282000", "095411.285000", "095411.287000", "095411.290000", "095411.292000", "095411.294000", "095411.297000", "095411.299000", "095411.301000", "095411.304000", "095411.306000", "095411.309000", "095431.227000", "095431.230000", "095431.232000", "095431.235000", "095431.237000", "095431.239000", "095431.242000", "095431.244000", "095431.247000", "095431.249000", "095431.251000", "095431.258000", "095431.260000", "095431.263000", "095431.265000", "095431.268000", "095431.270000", "095431.272000", "095431.275000", "095431.277000", "095431.279000", "095431.282000", "095431.284000", "095431.287000", "095431.289000", "095431.291000", "095431.294000", "095431.296000", "095431.299000", "095431.301000", "095431.303000", "095431.306000", "095431.308000", "095451.227000", "095451.230000", "095451.232000", "095451.235000", "095451.237000", "095451.239000", "095451.242000", "095451.244000", "095451.247000", "095451.249000", "095451.252000", "095451.254000", "095451.257000", "095451.259000", "095451.262000", "095451.264000", "095451.267000", "095451.269000", "095451.271000", "095451.274000", "095451.276000", "095451.279000", "095451.281000", "095451.284000", "095451.286000", "095451.288000", "095451.291000", "095451.294000", "095451.296000", "095451.299000", "095451.301000", "095451.304000", "095451.307000", "095511.228000", "095511.231000", "095511.233000", "095511.236000", "095511.238000", "095511.241000", "095511.243000", "095511.245000", "095511.248000", "095511.250000", "095511.252000", "095511.255000", "095511.257000", "095511.260000", "095511.262000", "095511.264000", "095511.267000", "095511.278000", "095511.281000", "095511.283000", "095511.286000", "095511.288000", "095511.290000", "095511.293000", "095511.295000", "095511.297000", "095511.300000", "095511.302000", "095511.305000", "095511.307000", "095511.309000", "095511.312000", "095531.228000", "095531.231000", "095531.233000", "095531.236000", "095531.238000", "095531.241000", "095531.243000", "095531.245000", "095531.248000", "095531.250000", "095531.253000", "095531.255000", "095531.257000", "095531.261000", "095531.264000", "095531.266000", "095531.269000", "095531.271000", "095531.273000", "095531.276000", "095531.278000", "095531.281000", "095531.283000", "095531.286000", "095531.288000", "095531.290000", "095531.293000", "095531.295000", "095531.297000", "095531.300000", "095531.302000", "095531.305000", "095531.307000", "095551.228000", "095551.231000", "095551.233000", "095551.236000", "095551.238000", "095551.240000", "095551.243000", "095551.245000", "095551.248000", "095551.250000", "095551.253000", "095551.255000", "095551.257000", "095551.260000", "095551.262000", "095551.265000", "095551.267000", "095551.269000", "095551.272000", "095551.274000", "095551.277000", "095551.279000", "095551.281000", "095551.284000", "095551.286000", "095551.288000", "095551.291000", "095551.293000", "095551.295000", "095551.298000", "095551.300000", "095551.302000", "095551.305000", "095608.758000", "095608.761000", "095608.763000", "095608.766000", "095608.768000", "095608.771000", "095608.773000", "095608.775000", "095608.778000", "095608.780000", "095608.783000", "095608.785000", "095608.788000", "095608.790000", "095608.792000", "095608.795000", "095608.798000", "095608.801000", "095608.803000", "095608.806000", "095608.808000", "095608.811000", "095608.813000", "095608.816000", "095608.818000", "095608.823000", "095608.826000", "095608.829000"], "InstanceCreationTime": ["095331.233000", "095331.239000", "095331.241000", "095331.243000", "095331.246000", "095331.248000", "095331.250000", "095331.253000", "095331.255000", "095331.258000", "095331.260000", "095331.263000", "095331.266000", "095331.268000", "095331.271000", "095331.273000", "095331.276000", "095331.280000", "095331.283000", "095331.285000", "095331.288000", "095331.290000", "095331.292000", "095331.295000", "095331.297000", "095331.300000", "095331.303000", "095331.306000", "095331.308000", "095331.310000", "095331.313000", "095331.315000", "095331.318000", "095331.320000", "095331.322000", "095331.325000", "095331.327000", "095331.330000", "095331.332000", "095331.335000", "095331.338000", "095351.229000", "095351.231000", "095351.234000", "095351.236000", "095351.239000", "095351.241000", "095351.243000", "095351.246000", "095351.255000", "095351.257000", "095351.260000", "095351.262000", "095351.265000", "095351.267000", "095351.269000", "095351.272000", "095351.274000", "095351.277000", "095351.279000", "095351.281000", "095351.284000", "095351.286000", "095351.288000", "095351.291000", "095351.293000", "095351.295000", "095351.298000", "095351.300000", "095351.302000", "095351.305000", "095351.307000", "095351.309000", "095411.227000", "095411.230000", "095411.232000", "095411.235000", "095411.237000", "095411.239000", "095411.242000", "095411.244000", "095411.246000", "095411.249000", "095411.251000", "095411.254000", "095411.256000", "095411.259000", "095411.261000", "095411.263000", "095411.266000", "095411.268000", "095411.271000", "095411.273000", "095411.275000", "095411.282000", "095411.285000", "095411.287000", "095411.290000", "095411.292000", "095411.294000", "095411.297000", "095411.299000", "095411.301000", "095411.304000", "095411.306000", "095411.309000", "095431.227000", "095431.230000", "095431.232000", "095431.235000", "095431.237000", "095431.239000", "095431.242000", "095431.244000", "095431.247000", "095431.249000", "095431.251000", "095431.258000", "095431.260000", "095431.263000", "095431.265000", "095431.268000", "095431.270000", "095431.272000", "095431.275000", "095431.277000", "095431.279000", "095431.282000", "095431.284000", "095431.287000", "095431.289000", "095431.291000", "095431.294000", "095431.296000", "095431.299000", "095431.301000", "095431.303000", "095431.306000", "095431.308000", "095451.227000", "095451.230000", "095451.232000", "095451.235000", "095451.237000", "095451.239000", "095451.242000", "095451.244000", "095451.247000", "095451.249000", "095451.252000", "095451.254000", "095451.257000", "095451.259000", "095451.262000", "095451.264000", "095451.267000", "095451.269000", "095451.271000", "095451.274000", "095451.276000", "095451.279000", "095451.281000", "095451.284000", "095451.286000", "095451.288000", "095451.291000", "095451.294000", "095451.296000", "095451.299000", "095451.301000", "095451.304000", "095451.307000", "095511.228000", "095511.231000", "095511.233000", "095511.236000", "095511.238000", "095511.241000", "095511.243000", "095511.245000", "095511.248000", "095511.250000", "095511.252000", "095511.255000", "095511.257000", "095511.260000", "095511.262000", "095511.264000", "095511.267000", "095511.278000", "095511.281000", "095511.283000", "095511.286000", "095511.288000", "095511.290000", "095511.293000", "095511.295000", "095511.297000", "095511.300000", "095511.302000", "095511.305000", "095511.307000", "095511.309000", "095511.312000", "095531.228000", "095531.231000", "095531.233000", "095531.236000", "095531.238000", "095531.241000", "095531.243000", "095531.245000", "095531.248000", "095531.250000", "095531.253000", "095531.255000", "095531.257000", "095531.261000", "095531.264000", "095531.266000", "095531.269000", "095531.271000", "095531.273000", "095531.276000", "095531.278000", "095531.281000", "095531.283000", "095531.286000", "095531.288000", "095531.290000", "095531.293000", "095531.295000", "095531.297000", "095531.300000", "095531.302000", "095531.305000", "095531.307000", "095551.228000", "095551.231000", "095551.233000", "095551.236000", "095551.238000", "095551.240000", "095551.243000", "095551.245000", "095551.248000", "095551.250000", "095551.253000", "095551.255000", "095551.257000", "095551.260000", "095551.262000", "095551.265000", "095551.267000", "095551.269000", "095551.272000", "095551.274000", "095551.277000", "095551.279000", "095551.281000", "095551.284000", "095551.286000", "095551.288000", "095551.291000", "095551.293000", "095551.295000", "095551.298000", "095551.300000", "095551.302000", "095551.305000", "095608.758000", "095608.761000", "095608.763000", "095608.766000", "095608.768000", "095608.771000", "095608.773000", "095608.775000", "095608.778000", "095608.780000", "095608.783000", "095608.785000", "095608.788000", "095608.790000", "095608.792000", "095608.795000", "095608.798000", "095608.801000", "095608.803000", "095608.806000", "095608.808000", "095608.811000", "095608.813000", "095608.816000", "095608.818000", "095608.823000", "095608.826000", "095608.829000"], "InstanceNumber": [1, 2, 3, 4, 5, 6, 7, 8, 9, 10, 11, 12, 13, 14, 15, 16, 17, 18, 19, 20, 21, 22, 23, 24, 25, 26, 27, 28, 29, 30, 31, 32, 33, 34, 35, 36, 37, 38, 39, 40, 41, 42, 43, 44, 45, 46, 47, 48, 49, 50, 51, 52, 53, 54, 55, 56, 57, 58, 59, 60, 61, 62, 63, 64, 65, 66, 67, 68, 69, 70, 71, 72, 73, 74, 75, 76, 77, 78, 79, 80, 81, 82, 83, 84, 85, 86, 87, 88, 89, 90, 91, 92, 93, 94, 95, 96, 97, 98, 99, 100, 101, 102, 103, 104, 105, 106, 107, 108, 109, 110, 111, 112, 113, 114, 115, 116, 117, 118, 119, 120, 121, 122, 123, 124, 125, 126, 127, 128, 129, 130, 131, 132, 133, 134, 135, 136, 137, 138, 139, 140, 141, 142, 143, 144, 145, 146, 147, 148, 149, 150, 151, 152, 153, 154, 155, 156, 157, 158, 159, 160, 161, 162, 163, 164, 165, 166, 167, 168, 169, 170, 171, 172, 173, 174, 175, 176, 177, 178, 179, 180, 181, 182, 183, 184, 185, 186, 187, 188, 189, 190, 191, 192, 193, 194, 195, 196, 197, 198, 199, 200, 201, 202, 203, 204, 205, 206, 207, 208, 209, 210, 211, 212, 213, 214, 215, 216, 217, 218, 219, 220, 221, 222, 223, 224, 225, 226, 227, 228, 229, 230, 231, 232, 233, 234, 235, 236, 237, 238, 239, 240, 241, 242, 243, 244, 245, 246, 247, 248, 249, 250, 251, 252, 253, 254, 255, 256, 257, 258, 259, 260, 261, 262, 263, 264, 265, 266, 267, 268, 269, 270, 271, 272, 273, 274, 275, 276, 277, 278, 279, 280, 281, 282, 283, 284, 285, 286, 287, 288, 289, 290, 291, 292, 293, 294, 295, 296, 297, 298], "LargestImagePixelValue": [778, 764, 770, 739, 740, 736, 741, 745, 745, 728, 725, 731, 727, 723, 735, 758, 715, 726, 737, 719, 747, 727, 716, 721, 743, 754, 720, 743, 743, 718, 733, 737, 715, 732, 729, 726, 728, 714, 782, 713, 728, 758, 701, 722, 728, 719, 729, 734, 756, 706, 730, 728, 699, 720, 734, 709, 715, 755, 730, 719, 738, 731, 709, 720, 741, 708, 721, 735, 762, 714, 727, 738, 702, 718, 736, 761, 708, 729, 753, 705, 740, 750, 716, 753, 717, 717, 727, 734, 712, 717, 750, 701, 725, 727, 709, 725, 719, 716, 737, 729, 735, 733, 731, 703, 727, 734, 738, 730, 734, 737, 722, 721, 708, 720, 734, 716, 720, 742, 728, 719, 714, 736, 737, 724, 724, 740, 714, 722, 730, 714, 708, 733, 716, 711, 726, 723, 734, 724, 745, 733, 711, 732, 744, 703, 741, 738, 734, 727, 730, 709, 728, 720, 705, 715, 728, 716, 708, 728, 725, 717, 739, 700, 728, 709, 702, 724, 711, 715, 713, 757, 725, 732, 701, 716, 687, 700, 703, 699, 713, 716, 724, 723, 704, 722, 714, 702, 706, 731, 710, 719, 704, 719, 728, 744, 715, 724, 774, 707, 721, 713, 791, 714, 716, 724, 703, 697, 723, 799, 698, 723, 700, 690, 736, 716, 703, 697, 712, 728, 701, 711, 722, 755, 709, 722, 707, 706, 725, 740, 730, 725, 780, 698, 725, 727, 792, 721, 724, 709, 736, 722, 721, 757, 709, 723, 703, 723, 729, 724, 701, 712, 730, 722, 753, 698, 711, 720, 740, 705, 715, 718, 704, 714, 720, 706, 717, 718, 764, 701, 723, 717, 705, 722, 713, 722, 698, 717, 724, 718, 706, 734, 731, 711, 721, 730, 799, 704, 731, 732, 756, 707, 726, 760, 803, 721, 715, 808, 716, 722], "WindowCenter": [442.0, 440.0, 439.0, 438.0, 436.0, 437.0, 437.0, 436.0, 436.0, 436.0, 436.0, 436.0, 436.0, 436.0, 436.0, 437.0, 437.0, 436.0, 436.0, 435.0, 437.0, 436.0, 435.0, 436.0, 436.0, 436.0, 435.0, 435.0, 435.0, 435.0, 436.0, 435.0, 434.0, 435.0, 435.0, 436.0, 435.0, 435.0, 437.0, 436.0, 435.0, 436.0, 435.0, 436.0, 436.0, 435.0, 435.0, 436.0, 436.0, 435.0, 436.0, 436.0, 436.0, 435.0, 436.0, 435.0, 436.0, 438.0, 437.0, 435.0, 437.0, 436.0, 435.0, 436.0, 436.0, 436.0, 436.0, 436.0, 437.0, 436.0, 436.0, 437.0, 434.0, 436.0, 436.0, 437.0, 436.0, 437.0, 437.0, 436.0, 437.0, 437.0, 436.0, 437.0, 436.0, 436.0, 436.0, 437.0, 436.0, 436.0, 437.0, 436.0, 436.0, 435.0, 436.0, 436.0, 436.0, 436.0, 436.0, 436.0, 436.0, 435.0, 436.0, 435.0, 435.0, 435.0, 435.0, 434.0, 436.0, 436.0, 435.0, 434.0, 435.0, 435.0, 435.0, 434.0, 434.0, 435.0, 434.0, 435.0, 435.0, 436.0, 434.0, 435.0, 434.0, 434.0, 434.0, 435.0, 435.0, 436.0, 436.0, 436.0, 435.0, 435.0, 435.0, 435.0, 436.0, 435.0, 435.0, 436.0, 435.0, 436.0, 435.0, 435.0, 436.0, 436.0, 435.0, 434.0, 435.0, 435.0, 436.0, 436.0, 436.0, 436.0, 436.0, 435.0, 434.0, 435.0, 434.0, 435.0, 436.0, 436.0, 437.0, 437.0, 435.0, 435.0, 436.0, 435.0, 435.0, 437.0, 435.0, 436.0, 435.0, 435.0, 435.0, 434.0, 434.0, 435.0, 435.0, 435.0, 435.0, 434.0, 434.0, 435.0, 434.0, 434.0, 434.0, 435.0, 434.0, 434.0, 434.0, 434.0, 435.0, 435.0, 435.0, 435.0, 437.0, 434.0, 434.0, 434.0, 436.0, 434.0, 435.0, 435.0, 434.0, 435.0, 438.0, 439.0, 434.0, 432.0, 432.0, 433.0, 434.0, 435.0, 434.0, 435.0, 436.0, 436.0, 435.0, 435.0, 434.0, 434.0, 433.0, 433.0, 432.0, 433.0, 434.0, 435.0, 435.0, 435.0, 435.0, 434.0, 435.0, 435.0, 436.0, 435.0, 435.0, 434.0, 435.0, 434.0, 434.0, 434.0, 435.0, 435.0, 434.0, 436.0, 436.0, 435.0, 434.0, 435.0, 436.0, 435.0, 436.0, 434.0, 435.0, 434.0, 435.0, 434.0, 435.0, 436.0, 436.0, 436.0, 436.0, 434.0, 436.0, 436.0, 435.0, 435.0, 436.0, 435.0, 434.0, 437.0, 436.0, 435.0, 435.0, 436.0, 437.0, 436.0, 436.0, 436.0, 435.0, 435.0, 435.0, 435.0, 436.0, 434.0, 436.0, 437.0, 436.0, 435.0, 435.0, 435.0, 435.0, 433.0, 434.0, 435.0, 434.0, 434.0], "WindowWidth": [933.0, 928.0, 926.0, 925.0, 921.0, 921.0, 921.0, 919.0, 920.0, 920.0, 919.0, 920.0, 919.0, 919.0, 920.0, 921.0, 922.0, 919.0, 921.0, 919.0, 921.0, 919.0, 918.0, 919.0, 919.0, 920.0, 917.0, 919.0, 918.0, 918.0, 919.0, 919.0, 916.0, 918.0, 919.0, 920.0, 918.0, 918.0, 922.0, 919.0, 919.0, 919.0, 918.0, 919.0, 920.0, 918.0, 918.0, 920.0, 920.0, 919.0, 920.0, 920.0, 920.0, 918.0, 919.0, 919.0, 920.0, 923.0, 921.0, 919.0, 921.0, 920.0, 919.0, 919.0, 920.0, 920.0, 919.0, 920.0, 921.0, 920.0, 919.0, 921.0, 917.0, 920.0, 919.0, 920.0, 920.0, 921.0, 921.0, 921.0, 921.0, 921.0, 920.0, 920.0, 920.0, 920.0, 920.0, 922.0, 920.0, 920.0, 921.0, 919.0, 920.0, 918.0, 919.0, 920.0, 920.0, 920.0, 920.0, 920.0, 920.0, 918.0, 919.0, 918.0, 918.0, 918.0, 918.0, 917.0, 919.0, 919.0, 918.0, 917.0, 918.0, 917.0, 918.0, 917.0, 916.0, 918.0, 917.0, 919.0, 918.0, 919.0, 917.0, 917.0, 916.0, 916.0, 915.0, 917.0, 918.0, 920.0, 919.0, 920.0, 919.0, 918.0, 918.0, 917.0, 919.0, 919.0, 919.0, 919.0, 918.0, 919.0, 918.0, 917.0, 919.0, 920.0, 918.0, 917.0, 918.0, 918.0, 919.0, 919.0, 920.0, 919.0, 920.0, 919.0, 917.0, 919.0, 917.0, 918.0, 920.0, 920.0, 921.0, 922.0, 917.0, 919.0, 919.0, 919.0, 918.0, 921.0, 918.0, 920.0, 918.0, 918.0, 918.0, 916.0, 916.0, 918.0, 918.0, 918.0, 918.0, 916.0, 916.0, 918.0, 916.0, 916.0, 917.0, 917.0, 916.0, 917.0, 917.0, 917.0, 917.0, 918.0, 917.0, 919.0, 921.0, 917.0, 916.0, 916.0, 918.0, 916.0, 918.0, 919.0, 917.0, 918.0, 924.0, 925.0, 915.0, 913.0, 913.0, 913.0, 915.0, 917.0, 916.0, 918.0, 920.0, 920.0, 918.0, 919.0, 917.0, 916.0, 914.0, 914.0, 913.0, 915.0, 916.0, 917.0, 917.0, 918.0, 918.0, 916.0, 918.0, 917.0, 918.0, 918.0, 918.0, 916.0, 917.0, 917.0, 916.0, 916.0, 917.0, 917.0, 917.0, 919.0, 921.0, 918.0, 917.0, 918.0, 920.0, 918.0, 919.0, 917.0, 917.0, 917.0, 917.0, 917.0, 918.0, 921.0, 920.0, 920.0, 920.0, 917.0, 919.0, 920.0, 917.0, 918.0, 919.0, 918.0, 917.0, 921.0, 919.0, 919.0, 919.0, 920.0, 922.0, 920.0, 920.0, 920.0, 918.0, 917.0, 917.0, 918.0, 919.0, 917.0, 920.0, 921.0, 920.0, 918.0, 919.0, 918.0, 917.0, 915.0, 916.0, 918.0, 915.0, 916.0]}, "slices": {}}, "EventTimestamp": "09-57-38"}