{"AcquisitionMatrixPE": 64, "AcquisitionNumber": 1, "AcquisitionTime": "14:51:30.677500", "BandwidthPerPixelPhaseEncode": 28.935, "BaseResolution": 64, "BodyPartExamined": "BRAIN", "CoilCombinationMethod": "Sum of Squares", "ConsistencyInfo": "N4_VE11E_LATEST_20181129", "ConversionSoftware": "dcm2niix", "ConversionSoftwareVersion": "v1.0.20230411", "DerivedVendorReportedEchoSpacing": 0.000540003, "DeviceSerialNumber": "166182", "DwellTime": 3.4e-06, "EchoTime": 0.032, "EchoTrainLength": 64, "EffectiveEchoSpacing": 0.000540003, "FlipAngle": 40, "HeudiconvVersion": "0.13.1", "ImageOrientationPatientDICOM": [0.997095, 0.0720348, -0.0247442, -0.0714726, 0.99718, 0.0228991], "ImageOrientationText": "Tra>Sag(-1.5)>Cor(1.2)", "ImageType": ["ORIGINAL", "PRIMARY", "M", "ND", "NORM", "MOSAIC"], "ImagingFrequency": 123.256766, "InPlanePhaseEncodingDirectionDICOM": "COL", "InstitutionAddress": "PEARSE STREET .,City,District,IE,D2", "InstitutionName": "TCIN", "InstitutionalDepartmentName": "MRI", "MRAcquisitionType": "2D", "MagneticFieldStrength": 3, "Manufacturer": "Siemens", "ManufacturersModelName": "Prisma", "Modality": "MR", "MultibandAccelerationFactor": 4, "NonlinearGradientCorrection": false, "PartialFourier": 1, "PatientPosition": "HFS", "PercentPhaseFOV": 100, "PercentSampling": 100, "PhaseEncodingDirection": "j-", "PhaseEncodingSteps": 64, "PhaseResolution": 1, "PixelBandwidth": 2300, "ProcedureStepDescription": "Rhodri^Head BOLD", "ProtocolName": "cmrr_mbep2d_Pictures_AP_RDS", "PulseSequenceDetails": "%SiemensSeq%\\ep2d_bold", "ReceiveCoilActiveElements": "HC2,4,6,7;SC", "ReceiveCoilName": "HeadNeck_64", "ReconMatrixPE": 64, "RefLinesPE": 12, "RepetitionTime": 0.61, "SAR": 0.400129, "ScanOptions": "FS", "ScanningSequence": "EP", "SequenceName": "*epfid2d1_64", "SequenceVariant": "SK", "SeriesDescription": "cmrr_mbep2d_Pictures_AP_RDS", "SeriesNumber": 12, "ShimSetting": [-3819, -7493, 3863, 838, 116, 216, 217, -214], "SliceThickness": 3, "SliceTiming": [0.2625, 0, 0.3275, 0.065, 0.3925, 0.1325, 0.46, 0.1975, 0.525, 0.2625, 0, 0.3275, 0.065, 0.3925, 0.1325, 0.46, 0.1975, 0.525, 0.2625, 0, 0.3275, 0.065, 0.3925, 0.1325, 0.46, 0.1975, 0.525, 0.2625, 0, 0.3275, 0.065, 0.3925, 0.1325, 0.46, 0.1975, 0.525], "SoftwareVersions": "syngo MR E11", "SpacingBetweenSlices": 3.3, "StationName": "AWP166182", "TaskName": "pictures", "TotalReadoutTime": 0.0340202, "TxRefAmp": 247.32, "dcmmeta_affine": [[-2.9912853240966797, -0.21441787481307983, -0.08686889708042145, 104.55007934570312], [-0.21610435843467712, 2.9915390014648438, 0.06951143592596054, -102.70952606201172], [-0.07423248887062073, -0.06869736313819885, 3.298123836517334, -80.50698852539062], [0.0, 0.0, 0.0, 1.0]], "dcmmeta_reorient_transform": [[0.0, -1.0, 0.0, 63.0], [1.0, 0.0, 0.0, 0.0], [0.0, 0.0, 1.0, 0.0], [0.0, 0.0, 0.0, 1.0]], "dcmmeta_shape": [64, 64, 36, 510], "dcmmeta_slice_dim": 2, "dcmmeta_version": 0.6, "global": {"const": {"AcquisitionMatrix": [64, 0, 0, 64], "AngioFlag": "N", "BitsAllocated": 16, "BitsStored": 12, "BodyPartExamined": "BRAIN", "Columns": 384, "EchoNumbers": 1, "EchoTime": 32.0, "EchoTrainLength": 64, "FlipAngle": 40.0, "HighBit": 11, "ImageOrientationPatient": [0.99709513875801, 0.07203478808235, -0.0247441623635, -0.0714726247116, 0.99717966997102, 0.02289912036129], "ImagePositionPatient": [-535.34056157524, -598.98037421325, -83.949302620704], "ImageType": ["ORIGINAL", "PRIMARY", "M", "ND", "NORM", "MOSAIC"], "ImagedNucleus": "1H", "ImagingFrequency": 123.256766, "InPlanePhaseEncodingDirection": "COL", "MRAcquisitionType": "2D", "MagneticFieldStrength": 3.0, "Manufacturer": "SIEMENS", "ManufacturerModelName": "Prisma", "Modality": "MR", "NumberOfAverages": 1.0, "NumberOfPhaseEncodingSteps": 64, "PercentPhaseFieldOfView": 100.0, "PercentSampling": 100.0, "PerformedProcedureStepStartTime": "143011.116000", "PhotometricInterpretation": "MONOCHROME2", "PixelBandwidth": 2300.0, "PixelRepresentation": 0, "PixelSpacing": [3.0, 3.0], "ProtocolName": "cmrr_mbep2d_Pictures_AP_RDS", "RepetitionTime": 610.0, "Rows": 384, "SAR": 0.40012926171886, "SamplesPerPixel": 1, "ScanOptions": "FS", "ScanningSequence": "EP", "SequenceName": "*epfid2d1_64", "SequenceVariant": "SK", "SeriesDescription": "cmrr_mbep2d_Pictures_AP_RDS", "SeriesNumber": 12, "SeriesTime": "145202.482000", "SliceLocation": -85.376869698, "SliceThickness": 3.0, "SmallestImagePixelValue": 0, "SoftwareVersions": "syngo MR E11", "SpacingBetweenSlices": 3.299999926067, "SpecificCharacterSet": "ISO_IR 100", "StudyID": "1", "StudyTime": "143011.056000", "TransmitCoilName": "Body", "VariableFlipAngleFlag": "N", "WindowCenterWidthExplanation": "Algo1"}, "slices": {}}, "time": {"samples": {"AcquisitionNumber": [1, 2, 3, 4, 5, 6, 7, 8, 9, 10, 11, 12, 13, 14, 15, 16, 17, 18, 19, 20, 21, 22, 23, 24, 25, 26, 27, 28, 29, 30, 31, 32, 33, 34, 35, 36, 37, 38, 39, 40, 41, 42, 43, 44, 45, 46, 47, 48, 49, 50, 51, 52, 53, 54, 55, 56, 57, 58, 59, 60, 61, 62, 63, 64, 65, 66, 67, 68, 69, 70, 71, 72, 73, 74, 75, 76, 77, 78, 79, 80, 81, 82, 83, 84, 85, 86, 87, 88, 89, 90, 91, 92, 93, 94, 95, 96, 97, 98, 99, 100, 101, 102, 103, 104, 105, 106, 107, 108, 109, 110, 111, 112, 113, 114, 115, 116, 117, 118, 119, 120, 121, 122, 123, 124, 125, 126, 127, 128, 129, 130, 131, 132, 133, 134, 135, 136, 137, 138, 139, 140, 141, 142, 143, 144, 145, 146, 147, 148, 149, 150, 151, 152, 153, 154, 155, 156, 157, 158, 159, 160, 161, 162, 163, 164, 165, 166, 167, 168, 169, 170, 171, 172, 173, 174, 175, 176, 177, 178, 179, 180, 181, 182, 183, 184, 185, 186, 187, 188, 189, 190, 191, 192, 193, 194, 195, 196, 197, 198, 199, 200, 201, 202, 203, 204, 205, 206, 207, 208, 209, 210, 211, 212, 213, 214, 215, 216, 217, 218, 219, 220, 221, 222, 223, 224, 225, 226, 227, 228, 229, 230, 231, 232, 233, 234, 235, 236, 237, 238, 239, 240, 241, 242, 243, 244, 245, 246, 247, 248, 249, 250, 251, 252, 253, 254, 255, 256, 257, 258, 259, 260, 261, 262, 263, 264, 265, 266, 267, 268, 269, 270, 271, 272, 273, 274, 275, 276, 277, 278, 279, 280, 281, 282, 283, 284, 285, 286, 287, 288, 289, 290, 291, 292, 293, 294, 295, 296, 297, 298, 299, 300, 301, 302, 303, 304, 305, 306, 307, 308, 309, 310, 311, 312, 313, 314, 315, 316, 317, 318, 319, 320, 321, 322, 323, 324, 325, 326, 327, 328, 329, 330, 331, 332, 333, 334, 335, 336, 337, 338, 339, 340, 341, 342, 343, 344, 345, 346, 347, 348, 349, 350, 351, 352, 353, 354, 355, 356, 357, 358, 359, 360, 361, 362, 363, 364, 365, 366, 367, 368, 369, 370, 371, 372, 373, 374, 375, 376, 377, 378, 379, 380, 381, 382, 383, 384, 385, 386, 387, 388, 389, 390, 391, 392, 393, 394, 395, 396, 397, 398, 399, 400, 401, 402, 403, 404, 405, 406, 407, 408, 409, 410, 411, 412, 413, 414, 415, 416, 417, 418, 419, 420, 421, 422, 423, 424, 425, 426, 427, 428, 429, 430, 431, 432, 433, 434, 435, 436, 437, 438, 439, 440, 441, 442, 443, 444, 445, 446, 447, 448, 449, 450, 451, 452, 453, 454, 455, 456, 457, 458, 459, 460, 461, 462, 463, 464, 465, 466, 467, 468, 469, 470, 471, 472, 473, 474, 475, 476, 477, 478, 479, 480, 481, 482, 483, 484, 485, 486, 487, 488, 489, 490, 491, 492, 493, 494, 495, 496, 497, 498, 499, 500, 501, 502, 503, 504, 505, 506, 507, 508, 509, 510], "AcquisitionTime": ["145130.677500", "145131.287500", "145131.897500", "145132.507500", "145133.117500", "145133.727500", "145134.337500", "145134.947500", "145135.557500", "145136.167500", "145136.777500", "145137.387500", "145137.997500", "145138.607500", "145139.217500", "145139.827500", "145140.437500", "145141.047500", "145141.657500", "145142.267500", "145142.877500", "145143.487500", "145144.097500", "145144.707500", "145145.317500", "145145.927500", "145146.537500", "145147.147500", "145147.757500", "145148.367500", "145148.977500", "145149.587500", "145150.197500", "145150.807500", "145151.417500", "145152.027500", "145152.637500", "145153.247500", "145153.857500", "145154.467500", "145155.077500", "145155.687500", "145156.297500", "145156.907500", "145157.517500", "145158.127500", "145158.737500", "145159.347500", "145159.957500", "145200.567500", "145201.177500", "145201.787500", "145202.397500", "145203.007500", "145203.617500", "145204.227500", "145204.837500", "145205.447500", "145206.057500", "145206.667500", "145207.277500", "145207.887500", "145208.497500", "145209.107500", "145209.717500", "145210.327500", "145210.937500", "145211.547500", "145212.157500", "145212.767500", "145213.377500", "145213.987500", "145214.597500", "145215.207500", "145215.817500", "145216.427500", "145217.037500", "145217.647500", "145218.257500", "145218.867500", "145219.477500", "145220.087500", "145220.697500", "145221.307500", "145221.917500", "145222.527500", "145223.137500", "145223.747500", "145224.357500", "145224.967500", "145225.577500", "145226.187500", "145226.797500", "145227.407500", "145228.017500", "145228.627500", "145229.237500", "145229.847500", "145230.457500", "145231.067500", "145231.677500", "145232.287500", "145232.897500", "145233.507500", "145234.117500", "145234.727500", "145235.337500", "145235.947500", "145236.557500", "145237.167500", "145237.777500", "145238.387500", "145238.997500", "145239.607500", "145240.217500", "145240.827500", "145241.437500", "145242.047500", "145242.657500", "145243.267500", "145243.877500", "145244.487500", "145245.097500", "145245.707500", "145246.317500", "145246.927500", "145247.537500", "145248.147500", "145248.757500", "145249.367500", "145249.977500", "145250.587500", "145251.197500", "145251.807500", "145252.417500", "145253.027500", "145253.637500", "145254.247500", "145254.857500", "145255.467500", "145256.077500", "145256.687500", "145257.297500", "145257.907500", "145258.517500", "145259.127500", "145259.737500", "145300.347500", "145300.957500", "145301.567500", "145302.177500", "145302.787500", "145303.397500", "145304.007500", "145304.617500", "145305.227500", "145305.837500", "145306.447500", "145307.057500", "145307.667500", "145308.277500", "145308.887500", "145309.497500", "145310.107500", "145310.717500", "145311.327500", "145311.937500", "145312.547500", "145313.157500", "145313.767500", "145314.377500", "145314.987500", "145315.597500", "145316.207500", "145316.817500", "145317.427500", "145318.037500", "145318.647500", "145319.257500", "145319.867500", "145320.477500", "145321.087500", "145321.697500", "145322.307500", "145322.917500", "145323.527500", "145324.137500", "145324.747500", "145325.357500", "145325.967500", "145326.577500", "145327.187500", "145327.797500", "145328.407500", "145329.017500", "145329.627500", "145330.237500", "145330.847500", "145331.457500", "145332.067500", "145332.677500", "145333.287500", "145333.897500", "145334.507500", "145335.117500", "145335.727500", "145336.337500", "145336.947500", "145337.557500", "145338.167500", "145338.777500", "145339.387500", "145339.997500", "145340.607500", "145341.217500", "145341.827500", "145342.437500", "145343.047500", "145343.657500", "145344.267500", "145344.877500", "145345.487500", "145346.097500", "145346.707500", "145347.317500", "145347.927500", "145348.537500", "145349.147500", "145349.757500", "145350.367500", "145350.977500", "145351.587500", "145352.197500", "145352.807500", "145353.417500", "145354.027500", "145354.637500", "145355.247500", "145355.857500", "145356.467500", "145357.077500", "145357.687500", "145358.297500", "145358.907500", "145359.517500", "145400.127500", "145400.737500", "145401.347500", "145401.957500", "145402.567500", "145403.177500", "145403.787500", "145404.397500", "145405.007500", "145405.617500", "145406.227500", "145406.837500", "145407.447500", "145408.057500", "145408.667500", "145409.277500", "145409.887500", "145410.497500", "145411.107500", "145411.717500", "145412.327500", "145412.937500", "145413.547500", "145414.157500", "145414.767500", "145415.377500", "145415.987500", "145416.597500", "145417.207500", "145417.817500", "145418.427500", "145419.037500", "145419.647500", "145420.257500", "145420.867500", "145421.477500", "145422.087500", "145422.697500", "145423.307500", "145423.917500", "145424.527500", "145425.137500", "145425.747500", "145426.357500", "145426.967500", "145427.577500", "145428.187500", "145428.797500", "145429.407500", "145430.017500", "145430.627500", "145431.237500", "145431.847500", "145432.457500", "145433.067500", "145433.677500", "145434.287500", "145434.897500", "145435.507500", "145436.117500", "145436.727500", "145437.337500", "145437.947500", "145438.557500", "145439.167500", "145439.777500", "145440.387500", "145440.997500", "145441.607500", "145442.217500", "145442.827500", "145443.437500", "145444.047500", "145444.657500", "145445.267500", "145445.877500", "145446.487500", "145447.097500", "145447.707500", "145448.317500", "145448.927500", "145449.537500", "145450.147500", "145450.757500", "145451.367500", "145451.977500", "145452.587500", "145453.197500", "145453.807500", "145454.417500", "145455.027500", "145455.637500", "145456.247500", "145456.857500", "145457.467500", "145458.077500", "145458.687500", "145459.297500", "145459.907500", "145500.517500", "145501.127500", "145501.737500", "145502.347500", "145502.957500", "145503.567500", "145504.177500", "145504.787500", "145505.397500", "145506.007500", "145506.617500", "145507.227500", "145507.837500", "145508.447500", "145509.057500", "145509.667500", "145510.277500", "145510.887500", "145511.497500", "145512.107500", "145512.717500", "145513.327500", "145513.937500", "145514.547500", "145515.157500", "145515.767500", "145516.377500", "145516.987500", "145517.597500", "145518.207500", "145518.817500", "145519.427500", "145520.037500", "145520.647500", "145521.257500", "145521.867500", "145522.477500", "145523.087500", "145523.697500", "145524.307500", "145524.917500", "145525.527500", "145526.137500", "145526.747500", "145527.357500", "145527.967500", "145528.577500", "145529.187500", "145529.797500", "145530.407500", "145531.017500", "145531.627500", "145532.237500", "145532.847500", "145533.457500", "145534.067500", "145534.677500", "145535.287500", "145535.897500", "145536.507500", "145537.117500", "145537.727500", "145538.337500", "145538.947500", "145539.557500", "145540.167500", "145540.777500", "145541.387500", "145541.997500", "145542.607500", "145543.217500", "145543.827500", "145544.437500", "145545.047500", "145545.657500", "145546.267500", "145546.877500", "145547.487500", "145548.097500", "145548.707500", "145549.317500", "145549.927500", "145550.537500", "145551.147500", "145551.757500", "145552.367500", "145552.977500", "145553.587500", "145554.197500", "145554.807500", "145555.417500", "145556.027500", "145556.637500", "145557.247500", "145557.857500", "145558.467500", "145559.077500", "145559.687500", "145600.297500", "145600.907500", "145601.517500", "145602.127500", "145602.737500", "145603.347500", "145603.957500", "145604.567500", "145605.177500", "145605.787500", "145606.397500", "145607.007500", "145607.617500", "145608.227500", "145608.837500", "145609.447500", "145610.057500", "145610.667500", "145611.277500", "145611.887500", "145612.497500", "145613.107500", "145613.717500", "145614.327500", "145614.937500", "145615.547500", "145616.157500", "145616.767500", "145617.377500", "145617.987500", "145618.597500", "145619.207500", "145619.817500", "145620.427500", "145621.037500", "145621.647500", "145622.257500", "145622.867500", "145623.477500", "145624.087500", "145624.697500", "145625.307500", "145625.917500", "145626.527500", "145627.137500", "145627.747500", "145628.357500", "145628.967500", "145629.577500", "145630.187500", "145630.797500", "145631.407500", "145632.017500", "145632.627500", "145633.237500", "145633.847500", "145634.457500", "145635.067500", "145635.677500", "145636.287500", "145636.897500", "145637.507500", "145638.117500", "145638.727500", "145639.337500", "145639.947500", "145640.557500", "145641.167500"], "ContentTime": ["145202.485000", "145202.488000", "145202.491000", "145202.493000", "145202.497000", "145202.499000", "145202.502000", "145202.504000", "145202.507000", "145202.509000", "145202.512000", "145202.514000", "145202.516000", "145202.519000", "145202.521000", "145202.524000", "145202.526000", "145202.528000", "145202.531000", "145202.533000", "145202.536000", "145202.538000", "145202.540000", "145202.543000", "145202.545000", "145202.548000", "145202.550000", "145202.552000", "145202.555000", "145202.557000", "145202.559000", "145202.562000", "145202.564000", "145202.567000", "145202.569000", "145202.571000", "145202.574000", "145202.576000", "145202.579000", "145202.581000", "145202.584000", "145202.586000", "145202.588000", "145202.591000", "145202.593000", "145202.596000", "145202.598000", "145202.601000", "145202.603000", "145202.605000", "145202.608000", "145222.480000", "145222.483000", "145222.485000", "145222.487000", "145222.490000", "145222.492000", "145222.495000", "145222.497000", "145222.500000", "145222.502000", "145222.505000", "145222.507000", "145222.509000", "145222.512000", "145222.514000", "145222.516000", "145222.519000", "145222.521000", "145222.524000", "145222.526000", "145222.529000", "145222.531000", "145222.533000", "145222.536000", "145222.538000", "145222.541000", "145222.543000", "145222.545000", "145222.548000", "145222.550000", "145222.558000", "145222.561000", "145222.563000", "145242.481000", "145242.484000", "145242.486000", "145242.489000", "145242.491000", "145242.494000", "145242.496000", "145242.499000", "145242.501000", "145242.503000", "145242.506000", "145242.508000", "145242.511000", "145242.513000", "145242.516000", "145242.518000", "145242.520000", "145242.523000", "145242.525000", "145242.528000", "145242.530000", "145242.532000", "145242.535000", "145242.537000", "145242.539000", "145242.542000", "145242.544000", "145242.547000", "145242.549000", "145242.551000", "145242.554000", "145242.556000", "145302.481000", "145302.484000", "145302.491000", "145302.493000", "145302.495000", "145302.498000", "145302.500000", "145302.503000", "145302.505000", "145302.508000", "145302.510000", "145302.513000", "145302.515000", "145302.518000", "145302.520000", "145302.522000", "145302.525000", "145302.527000", "145302.530000", "145302.532000", "145302.535000", "145302.537000", "145302.540000", "145302.543000", "145302.545000", "145302.548000", "145302.550000", "145302.552000", "145302.555000", "145302.557000", "145302.560000", "145302.562000", "145302.564000", "145322.482000", "145322.484000", "145322.488000", "145322.490000", "145322.493000", "145322.495000", "145322.497000", "145322.500000", "145322.502000", "145322.505000", "145322.507000", "145322.510000", "145322.512000", "145322.514000", "145322.517000", "145322.519000", "145322.522000", "145322.524000", "145322.527000", "145322.529000", "145322.532000", "145322.534000", "145322.536000", "145322.539000", "145322.541000", "145322.544000", "145322.546000", "145322.548000", "145322.551000", "145322.553000", "145322.561000", "145322.564000", "145322.566000", "145342.480000", "145342.483000", "145342.485000", "145342.488000", "145342.491000", "145342.493000", "145342.496000", "145342.498000", "145342.501000", "145342.503000", "145342.505000", "145342.508000", "145342.510000", "145342.513000", "145342.515000", "145342.517000", "145342.520000", "145342.522000", "145342.524000", "145342.527000", "145342.529000", "145342.532000", "145342.534000", "145342.537000", "145342.539000", "145342.541000", "145342.555000", "145342.558000", "145342.560000", "145342.562000", "145342.565000", "145342.567000", "145342.570000", "145402.480000", "145402.483000", "145402.485000", "145402.488000", "145402.490000", "145402.493000", "145402.495000", "145402.497000", "145402.500000", "145402.502000", "145402.505000", "145402.507000", "145402.510000", "145402.512000", "145402.514000", "145402.517000", "145402.519000", "145402.522000", "145402.524000", "145402.527000", "145402.529000", "145402.531000", "145402.534000", "145402.536000", "145402.539000", "145402.541000", "145402.543000", "145402.546000", "145402.548000", "145402.550000", "145402.553000", "145402.555000", "145422.480000", "145422.483000", "145422.485000", "145422.487000", "145422.490000", "145422.496000", "145422.498000", "145422.500000", "145422.503000", "145422.506000", "145422.508000", "145422.510000", "145422.513000", "145422.515000", "145422.518000", "145422.520000", "145422.522000", "145422.525000", "145422.527000", "145422.530000", "145422.532000", "145422.535000", "145422.537000", "145422.539000", "145422.542000", "145422.544000", "145422.547000", "145422.549000", "145422.552000", "145422.554000", "145422.557000", "145422.559000", "145422.561000", "145442.480000", "145442.483000", "145442.485000", "145442.488000", "145442.490000", "145442.493000", "145442.495000", "145442.498000", "145442.500000", "145442.502000", "145442.505000", "145442.507000", "145442.510000", "145442.512000", "145442.514000", "145442.517000", "145442.519000", "145442.522000", "145442.524000", "145442.526000", "145442.529000", "145442.531000", "145442.534000", "145442.536000", "145442.539000", "145442.541000", "145442.543000", "145442.546000", "145442.548000", "145442.551000", "145442.554000", "145442.556000", "145442.558000", "145502.481000", "145502.484000", "145502.486000", "145502.489000", "145502.491000", "145502.494000", "145502.496000", "145502.499000", "145502.501000", "145502.503000", "145502.506000", "145502.508000", "145502.511000", "145502.513000", "145502.515000", "145502.518000", "145502.520000", "145502.523000", "145502.525000", "145502.527000", "145502.530000", "145502.532000", "145502.535000", "145502.537000", "145502.539000", "145502.542000", "145502.544000", "145502.547000", "145502.549000", "145502.552000", "145502.554000", "145502.556000", "145502.559000", "145522.481000", "145522.484000", "145522.486000", "145522.489000", "145522.492000", "145522.494000", "145522.496000", "145522.499000", "145522.501000", "145522.504000", "145522.506000", "145522.508000", "145522.511000", "145522.513000", "145522.516000", "145522.518000", "145522.521000", "145522.523000", "145522.525000", "145522.528000", "145522.530000", "145522.533000", "145522.535000", "145522.538000", "145522.540000", "145522.543000", "145522.545000", "145522.547000", "145522.550000", "145522.552000", "145522.555000", "145522.557000", "145522.560000", "145542.481000", "145542.484000", "145542.487000", "145542.489000", "145542.491000", "145542.494000", "145542.496000", "145542.499000", "145542.501000", "145542.503000", "145542.506000", "145542.508000", "145542.511000", "145542.513000", "145542.515000", "145542.518000", "145542.520000", "145542.523000", "145542.526000", "145542.528000", "145542.531000", "145542.533000", "145542.536000", "145542.538000", "145542.541000", "145542.543000", "145542.545000", "145542.548000", "145542.550000", "145542.553000", "145542.555000", "145542.557000", "145602.480000", "145602.483000", "145602.485000", "145602.487000", "145602.490000", "145602.493000", "145602.495000", "145602.498000", "145602.500000", "145602.503000", "145602.505000", "145602.507000", "145602.510000", "145602.512000", "145602.515000", "145602.517000", "145602.520000", "145602.522000", "145602.524000", "145602.527000", "145602.529000", "145602.532000", "145602.534000", "145602.536000", "145602.539000", "145602.541000", "145602.544000", "145602.546000", "145602.549000", "145602.551000", "145602.553000", "145602.556000", "145602.558000", "145622.480000", "145622.483000", "145622.485000", "145622.488000", "145622.490000", "145622.493000", "145622.495000", "145622.497000", "145622.500000", "145622.502000", "145622.543000", "145622.546000", "145622.548000", "145622.550000", "145622.553000", "145622.555000", "145622.558000", "145622.560000", "145622.563000", "145622.565000", "145622.567000", "145622.570000", "145622.572000", "145622.575000", "145622.577000", "145622.579000", "145622.586000", "145622.589000", "145622.591000", "145622.594000", "145622.596000", "145622.598000", "145622.601000", "145642.271000", "145642.274000", "145642.276000", "145642.278000", "145642.281000", "145642.283000", "145642.286000", "145642.288000", "145642.291000", "145642.293000", "145642.295000", "145642.298000", "145642.300000", "145642.303000", "145642.305000", "145642.308000", "145642.310000", "145642.312000", "145642.315000", "145642.317000", "145642.320000", "145642.322000", "145642.325000", "145642.327000", "145642.329000", "145642.332000", "145642.334000", "145642.337000", "145642.339000", "145642.341000", "145642.344000", "145642.346000", "145642.349000"], "InstanceCreationTime": ["145202.485000", "145202.488000", "145202.491000", "145202.493000", "145202.497000", "145202.499000", "145202.502000", "145202.504000", "145202.507000", "145202.509000", "145202.512000", "145202.514000", "145202.516000", "145202.519000", "145202.521000", "145202.524000", "145202.526000", "145202.528000", "145202.531000", "145202.533000", "145202.536000", "145202.538000", "145202.540000", "145202.543000", "145202.545000", "145202.548000", "145202.550000", "145202.552000", "145202.555000", "145202.557000", "145202.559000", "145202.562000", "145202.564000", "145202.567000", "145202.569000", "145202.571000", "145202.574000", "145202.576000", "145202.579000", "145202.581000", "145202.584000", "145202.586000", "145202.588000", "145202.591000", "145202.593000", "145202.596000", "145202.598000", "145202.601000", "145202.603000", "145202.605000", "145202.608000", "145222.480000", "145222.483000", "145222.485000", "145222.487000", "145222.490000", "145222.492000", "145222.495000", "145222.497000", "145222.500000", "145222.502000", "145222.505000", "145222.507000", "145222.509000", "145222.512000", "145222.514000", "145222.516000", "145222.519000", "145222.521000", "145222.524000", "145222.526000", "145222.529000", "145222.531000", "145222.533000", "145222.536000", "145222.538000", "145222.541000", "145222.543000", "145222.545000", "145222.548000", "145222.550000", "145222.558000", "145222.561000", "145222.563000", "145242.481000", "145242.484000", "145242.486000", "145242.489000", "145242.491000", "145242.494000", "145242.496000", "145242.499000", "145242.501000", "145242.503000", "145242.506000", "145242.508000", "145242.511000", "145242.513000", "145242.516000", "145242.518000", "145242.520000", "145242.523000", "145242.525000", "145242.528000", "145242.530000", "145242.532000", "145242.535000", "145242.537000", "145242.539000", "145242.542000", "145242.544000", "145242.547000", "145242.549000", "145242.551000", "145242.554000", "145242.556000", "145302.481000", "145302.484000", "145302.491000", "145302.493000", "145302.495000", "145302.498000", "145302.500000", "145302.503000", "145302.505000", "145302.508000", "145302.510000", "145302.513000", "145302.515000", "145302.518000", "145302.520000", "145302.522000", "145302.525000", "145302.527000", "145302.530000", "145302.532000", "145302.535000", "145302.537000", "145302.540000", "145302.543000", "145302.545000", "145302.548000", "145302.550000", "145302.552000", "145302.555000", "145302.557000", "145302.560000", "145302.562000", "145302.564000", "145322.482000", "145322.484000", "145322.488000", "145322.490000", "145322.493000", "145322.495000", "145322.497000", "145322.500000", "145322.502000", "145322.505000", "145322.507000", "145322.510000", "145322.512000", "145322.514000", "145322.517000", "145322.519000", "145322.522000", "145322.524000", "145322.527000", "145322.529000", "145322.532000", "145322.534000", "145322.536000", "145322.539000", "145322.541000", "145322.544000", "145322.546000", "145322.548000", "145322.551000", "145322.553000", "145322.561000", "145322.564000", "145322.566000", "145342.480000", "145342.483000", "145342.485000", "145342.488000", "145342.491000", "145342.493000", "145342.496000", "145342.498000", "145342.501000", "145342.503000", "145342.505000", "145342.508000", "145342.510000", "145342.513000", "145342.515000", "145342.517000", "145342.520000", "145342.522000", "145342.524000", "145342.527000", "145342.529000", "145342.532000", "145342.534000", "145342.537000", "145342.539000", "145342.541000", "145342.555000", "145342.558000", "145342.560000", "145342.562000", "145342.565000", "145342.567000", "145342.570000", "145402.480000", "145402.483000", "145402.485000", "145402.488000", "145402.490000", "145402.493000", "145402.495000", "145402.497000", "145402.500000", "145402.502000", "145402.505000", "145402.507000", "145402.510000", "145402.512000", "145402.514000", "145402.517000", "145402.519000", "145402.522000", "145402.524000", "145402.527000", "145402.529000", "145402.531000", "145402.534000", "145402.536000", "145402.539000", "145402.541000", "145402.543000", "145402.546000", "145402.548000", "145402.550000", "145402.553000", "145402.555000", "145422.480000", "145422.483000", "145422.485000", "145422.487000", "145422.490000", "145422.496000", "145422.498000", "145422.500000", "145422.503000", "145422.506000", "145422.508000", "145422.510000", "145422.513000", "145422.515000", "145422.518000", "145422.520000", "145422.522000", "145422.525000", "145422.527000", "145422.530000", "145422.532000", "145422.535000", "145422.537000", "145422.539000", "145422.542000", "145422.544000", "145422.547000", "145422.549000", "145422.552000", "145422.554000", "145422.557000", "145422.559000", "145422.561000", "145442.480000", "145442.483000", "145442.485000", "145442.488000", "145442.490000", "145442.493000", "145442.495000", "145442.498000", "145442.500000", "145442.502000", "145442.505000", "145442.507000", "145442.510000", "145442.512000", "145442.514000", "145442.517000", "145442.519000", "145442.522000", "145442.524000", "145442.526000", "145442.529000", "145442.531000", "145442.534000", "145442.536000", "145442.539000", "145442.541000", "145442.543000", "145442.546000", "145442.548000", "145442.551000", "145442.554000", "145442.556000", "145442.558000", "145502.481000", "145502.484000", "145502.486000", "145502.489000", "145502.491000", "145502.494000", "145502.496