{"AcquisitionMatrixPE": 64, "AcquisitionNumber": 1, "AcquisitionTime": "11:56:19.747500", "BandwidthPerPixelPhaseEncode": 28.935, "BaseResolution": 64, "BodyPartExamined": "BRAIN", "CoilCombinationMethod": "Sum of Squares", "ConsistencyInfo": "N4_VE11E_LATEST_20181129", "ConversionSoftware": "dcm2niix", "ConversionSoftwareVersion": "v1.0.20230411", "DerivedVendorReportedEchoSpacing": 0.000540003, "DeviceSerialNumber": "166182", "DwellTime": 3.4e-06, "EchoTime": 0.032, "EchoTrainLength": 64, "EffectiveEchoSpacing": 0.000540003, "FlipAngle": 40, "HeudiconvVersion": "0.13.1", "ImageOrientationPatientDICOM": [0.999451, 0.000343445, 0.0331356, -0.00209331, 0.998604, 0.052789], "ImageOrientationText": "Tra>Cor(3.0)>Sag(1.9)", "ImageType": ["ORIGINAL", "PRIMARY", "M", "ND", "NORM", "MOSAIC"], "ImagingFrequency": 123.256071, "InPlanePhaseEncodingDirectionDICOM": "COL", "InstitutionAddress": "PEARSE STREET .,City,District,IE,D2", "InstitutionName": "TCIN", "InstitutionalDepartmentName": "MRI", "MRAcquisitionType": "2D", "MagneticFieldStrength": 3, "Manufacturer": "Siemens", "ManufacturersModelName": "Prisma", "Modality": "MR", "MultibandAccelerationFactor": 4, "NonlinearGradientCorrection": false, "PartialFourier": 1, "PatientPosition": "HFS", "PercentPhaseFOV": 100, "PercentSampling": 100, "PhaseEncodingDirection": "j-", "PhaseEncodingSteps": 64, "PhaseResolution": 1, "PixelBandwidth": 2300, "ProcedureStepDescription": "Rhodri^Head BOLD", "ProtocolName": "cmrr_mbep2d_Pictures_AP_RDS", "PulseSequenceDetails": "%SiemensSeq%\\ep2d_bold", "ReceiveCoilActiveElements": "HC2,4,6,7;SC", "ReceiveCoilName": "SpecialPurpose_4", "ReconMatrixPE": 64, "RefLinesPE": 12, "RepetitionTime": 0.61, "SAR": 0.261193, "ScanOptions": "FS", "ScanningSequence": "EP", "SequenceName": "*epfid2d1_64", "SequenceVariant": "SK", "SeriesDescription": "cmrr_mbep2d_Pictures_AP_RDS", "SeriesNumber": 10, "ShimSetting": [-3613, -7482, 3852, 1022, -16, -75, 144, 4], "SliceThickness": 3, "SliceTiming": [0.2625, 0, 0.3275, 0.065, 0.395, 0.1325, 0.46, 0.1975, 0.525, 0.2625, 0, 0.3275, 0.065, 0.395, 0.1325, 0.46, 0.1975, 0.525, 0.2625, 0, 0.3275, 0.065, 0.395, 0.1325, 0.46, 0.1975, 0.525, 0.2625, 0, 0.3275, 0.065, 0.395, 0.1325, 0.46, 0.1975, 0.525], "SoftwareVersions": "syngo MR E11", "SpacingBetweenSlices": 3.3, "StationName": "AWP166182", "TaskName": "pictures", "TotalReadoutTime": 0.0340202, "TxRefAmp": 239.142, "dcmmeta_affine": [[-2.998352527618408, -0.00627993606030941, 0.10913506150245667, 93.52886962890625], [-0.0010303336894139647, 2.9958105087280273, 0.17433695495128632, -101.87901306152344], [0.0994069054722786, -0.15836703777313232, 3.293584108352661, -99.07466125488281], [0.0, 0.0, 0.0, 1.0]], "dcmmeta_reorient_transform": [[0.0, -1.0, 0.0, 63.0], [1.0, 0.0, 0.0, 0.0], [0.0, 0.0, 1.0, 0.0], [0.0, 0.0, 0.0, 1.0]], "dcmmeta_shape": [64, 64, 36, 510], "dcmmeta_slice_dim": 2, "dcmmeta_version": 0.6, "global": {"const": {"AcquisitionMatrix": [64, 0, 0, 64], "AngioFlag": "N", "BitsAllocated": 16, "BitsStored": 12, "BodyPartExamined": "BRAIN", "Columns": 384, "EchoNumbers": 1, "EchoTime": 32.0, "EchoTrainLength": 64, "FlipAngle": 40.0, "HighBit": 11, "ImageOrientationPatient": [0.99945080502826, 0.00034344456023, 0.03313563601611, -0.002093312013, 0.99860349409146, 0.05278901053394], "ImagePositionPatient": [-571.86483213737, -566.3515808513, -150.29561307543], "ImageType": ["ORIGINAL", "PRIMARY", "M", "ND", "NORM", "MOSAIC"], "ImagedNucleus": "1H", "ImagingFrequency": 123.256071, "InPlanePhaseEncodingDirection": "COL", "MRAcquisitionType": "2D", "MagneticFieldStrength": 3.0, "Manufacturer": "SIEMENS", "ManufacturerModelName": "Prisma", "Modality": "MR", "NumberOfAverages": 1.0, "NumberOfPhaseEncodingSteps": 64, "PercentPhaseFieldOfView": 100.0, "PercentSampling": 100.0, "PerformedProcedureStepStartTime": "113543.456000", "PhotometricInterpretation": "MONOCHROME2", "PixelBandwidth": 2300.0, "PixelRepresentation": 0, "PixelSpacing": [3.0, 3.0], "ProtocolName": "cmrr_mbep2d_Pictures_AP_RDS", "RepetitionTime": 610.0, "Rows": 384, "SAR": 0.26119307256096, "SamplesPerPixel": 1, "ScanOptions": "FS", "ScanningSequence": "EP", "SequenceName": "*epfid2d1_64", "SequenceVariant": "SK", "SeriesDescription": "cmrr_mbep2d_Pictures_AP_RDS", "SeriesNumber": 10, "SeriesTime": "115643.720000", "SliceLocation": -101.17112748538, "SliceThickness": 3.0, "SmallestImagePixelValue": 0, "SoftwareVersions": "syngo MR E11", "SpacingBetweenSlices": 3.2999999428312, "SpecificCharacterSet": "ISO_IR 100", "StudyID": "1", "StudyTime": "113543.316000", "TransmitCoilName": "Body", "VariableFlipAngleFlag": "N", "WindowCenterWidthExplanation": "Algo1"}, "slices": {}}, "time": {"samples": {"AcquisitionNumber": [1, 2, 3, 4, 5, 6, 7, 8, 9, 10, 11, 12, 13, 14, 15, 16, 17, 18, 19, 20, 21, 22, 23, 24, 25, 26, 27, 28, 29, 30, 31, 32, 33, 34, 35, 36, 37, 38, 39, 40, 41, 42, 43, 44, 45, 46, 47, 48, 49, 50, 51, 52, 53, 54, 55, 56, 57, 58, 59, 60, 61, 62, 63, 64, 65, 66, 67, 68, 69, 70, 71, 72, 73, 74, 75, 76, 77, 78, 79, 80, 81, 82, 83, 84, 85, 86, 87, 88, 89, 90, 91, 92, 93, 94, 95, 96, 97, 98, 99, 100, 101, 102, 103, 104, 105, 106, 107, 108, 109, 110, 111, 112, 113, 114, 115, 116, 117, 118, 119, 120, 121, 122, 123, 124, 125, 126, 127, 128, 129, 130, 131, 132, 133, 134, 135, 136, 137, 138, 139, 140, 141, 142, 143, 144, 145, 146, 147, 148, 149, 150, 151, 152, 153, 154, 155, 156, 157, 158, 159, 160, 161, 162, 163, 164, 165, 166, 167, 168, 169, 170, 171, 172, 173, 174, 175, 176, 177, 178, 179, 180, 181, 182, 183, 184, 185, 186, 187, 188, 189, 190, 191, 192, 193, 194, 195, 196, 197, 198, 199, 200, 201, 202, 203, 204, 205, 206, 207, 208, 209, 210, 211, 212, 213, 214, 215, 216, 217, 218, 219, 220, 221, 222, 223, 224, 225, 226, 227, 228, 229, 230, 231, 232, 233, 234, 235, 236, 237, 238, 239, 240, 241, 242, 243, 244, 245, 246, 247, 248, 249, 250, 251, 252, 253, 254, 255, 256, 257, 258, 259, 260, 261, 262, 263, 264, 265, 266, 267, 268, 269, 270, 271, 272, 273, 274, 275, 276, 277, 278, 279, 280, 281, 282, 283, 284, 285, 286, 287, 288, 289, 290, 291, 292, 293, 294, 295, 296, 297, 298, 299, 300, 301, 302, 303, 304, 305, 306, 307, 308, 309, 310, 311, 312, 313, 314, 315, 316, 317, 318, 319, 320, 321, 322, 323, 324, 325, 326, 327, 328, 329, 330, 331, 332, 333, 334, 335, 336, 337, 338, 339, 340, 341, 342, 343, 344, 345, 346, 347, 348, 349, 350, 351, 352, 353, 354, 355, 356, 357, 358, 359, 360, 361, 362, 363, 364, 365, 366, 367, 368, 369, 370, 371, 372, 373, 374, 375, 376, 377, 378, 379, 380, 381, 382, 383, 384, 385, 386, 387, 388, 389, 390, 391, 392, 393, 394, 395, 396, 397, 398, 399, 400, 401, 402, 403, 404, 405, 406, 407, 408, 409, 410, 411, 412, 413, 414, 415, 416, 417, 418, 419, 420, 421, 422, 423, 424, 425, 426, 427, 428, 429, 430, 431, 432, 433, 434, 435, 436, 437, 438, 439, 440, 441, 442, 443, 444, 445, 446, 447, 448, 449, 450, 451, 452, 453, 454, 455, 456, 457, 458, 459, 460, 461, 462, 463, 464, 465, 466, 467, 468, 469, 470, 471, 472, 473, 474, 475, 476, 477, 478, 479, 480, 481, 482, 483, 484, 485, 486, 487, 488, 489, 490, 491, 492, 493, 494, 495, 496, 497, 498, 499, 500, 501, 502, 503, 504, 505, 506, 507, 508, 509, 510], "AcquisitionTime": ["115619.747500", "115620.357500", "115620.967500", "115621.577500", "115622.187500", "115622.797500", "115623.407500", "115624.017500", "115624.627500", "115625.237500", "115625.847500", "115626.457500", "115627.067500", "115627.677500", "115628.287500", "115628.897500", "115629.507500", "115630.117500", "115630.727500", "115631.337500", "115631.947500", "115632.557500", "115633.167500", "115633.777500", "115634.387500", "115634.997500", "115635.607500", "115636.217500", "115636.827500", "115637.437500", "115638.047500", "115638.657500", "115639.267500", "115639.877500", "115640.487500", "115641.097500", "115641.707500", "115642.317500", "115642.927500", "115643.537500", "115644.147500", "115644.757500", "115645.367500", "115645.977500", "115646.587500", "115647.197500", "115647.807500", "115648.417500", "115649.027500", "115649.637500", "115650.247500", "115650.857500", "115651.467500", "115652.077500", "115652.687500", "115653.297500", "115653.907500", "115654.517500", "115655.127500", "115655.737500", "115656.347500", "115656.957500", "115657.567500", "115658.177500", "115658.787500", "115659.397500", "115700.007500", "115700.617500", "115701.227500", "115701.837500", "115702.447500", "115703.057500", "115703.667500", "115704.277500", "115704.887500", "115705.497500", "115706.107500", "115706.717500", "115707.327500", "115707.937500", "115708.547500", "115709.157500", "115709.767500", "115710.377500", "115710.987500", "115711.597500", "115712.207500", "115712.817500", "115713.427500", "115714.037500", "115714.647500", "115715.257500", "115715.867500", "115716.477500", "115717.087500", "115717.697500", "115718.307500", "115718.917500", "115719.527500", "115720.137500", "115720.747500", "115721.357500", "115721.967500", "115722.577500", "115723.187500", "115723.797500", "115724.407500", "115725.017500", "115725.627500", "115726.237500", "115726.847500", "115727.457500", "115728.067500", "115728.677500", "115729.287500", "115729.897500", "115730.507500", "115731.117500", "115731.727500", "115732.337500", "115732.947500", "115733.557500", "115734.167500", "115734.777500", "115735.387500", "115735.997500", "115736.607500", "115737.217500", "115737.827500", "115738.437500", "115739.047500", "115739.657500", "115740.267500", "115740.877500", "115741.487500", "115742.097500", "115742.707500", "115743.317500", "115743.927500", "115744.537500", "115745.147500", "115745.757500", "115746.367500", "115746.977500", "115747.587500", "115748.197500", "115748.807500", "115749.417500", "115750.027500", "115750.637500", "115751.247500", "115751.857500", "115752.467500", "115753.077500", "115753.687500", "115754.297500", "115754.907500", "115755.517500", "115756.127500", "115756.737500", "115757.347500", "115757.957500", "115758.567500", "115759.177500", "115759.787500", "115800.397500", "115801.007500", "115801.617500", "115802.227500", "115802.837500", "115803.447500", "115804.057500", "115804.667500", "115805.277500", "115805.887500", "115806.497500", "115807.107500", "115807.717500", "115808.327500", "115808.937500", "115809.547500", "115810.157500", "115810.767500", "115811.377500", "115811.987500", "115812.597500", "115813.207500", "115813.817500", "115814.427500", "115815.037500", "115815.647500", "115816.257500", "115816.867500", "115817.477500", "115818.087500", "115818.697500", "115819.307500", "115819.917500", "115820.527500", "115821.137500", "115821.747500", "115822.357500", "115822.967500", "115823.577500", "115824.187500", "115824.797500", "115825.407500", "115826.017500", "115826.627500", "115827.237500", "115827.847500", "115828.457500", "115829.067500", "115829.677500", "115830.287500", "115830.897500", "115831.507500", "115832.117500", "115832.727500", "115833.337500", "115833.947500", "115834.557500", "115835.167500", "115835.777500", "115836.387500", "115836.997500", "115837.607500", "115838.217500", "115838.827500", "115839.437500", "115840.047500", "115840.657500", "115841.267500", "115841.877500", "115842.487500", "115843.097500", "115843.707500", "115844.317500", "115844.927500", "115845.537500", "115846.147500", "115846.757500", "115847.367500", "115847.977500", "115848.587500", "115849.197500", "115849.807500", "115850.417500", "115851.027500", "115851.637500", "115852.247500", "115852.857500", "115853.467500", "115854.077500", "115854.687500", "115855.297500", "115855.907500", "115856.517500", "115857.127500", "115857.737500", "115858.347500", "115858.957500", "115859.567500", "115900.177500", "115900.787500", "115901.397500", "115902.007500", "115902.617500", "115903.227500", "115903.837500", "115904.447500", "115905.057500", "115905.667500", "115906.277500", "115906.887500", "115907.497500", "115908.107500", "115908.717500", "115909.327500", "115909.937500", "115910.547500", "115911.157500", "115911.767500", "115912.377500", "115912.987500", "115913.597500", "115914.207500", "115914.817500", "115915.427500", "115916.037500", "115916.647500", "115917.257500", "115917.867500", "115918.477500", "115919.087500", "115919.697500", "115920.307500", "115920.917500", "115921.527500", "115922.137500", "115922.747500", "115923.357500", "115923.967500", "115924.577500", "115925.187500", "115925.797500", "115926.407500", "115927.017500", "115927.627500", "115928.237500", "115928.847500", "115929.457500", "115930.067500", "115930.677500", "115931.287500", "115931.897500", "115932.507500", "115933.117500", "115933.727500", "115934.337500", "115934.947500", "115935.557500", "115936.167500", "115936.777500", "115937.387500", "115937.997500", "115938.607500", "115939.217500", "115939.827500", "115940.437500", "115941.047500", "115941.657500", "115942.267500", "115942.877500", "115943.487500", "115944.097500", "115944.707500", "115945.317500", "115945.927500", "115946.537500", "115947.147500", "115947.757500", "115948.367500", "115948.977500", "115949.587500", "115950.197500", "115950.807500", "115951.417500", "115952.027500", "115952.637500", "115953.247500", "115953.857500", "115954.467500", "115955.077500", "115955.687500", "115956.297500", "115956.907500", "115957.517500", "115958.127500", "115958.737500", "115959.347500", "115959.957500", "120000.567500", "120001.177500", "120001.787500", "120002.397500", "120003.007500", "120003.617500", "120004.227500", "120004.837500", "120005.447500", "120006.057500", "120006.667500", "120007.277500", "120007.887500", "120008.497500", "120009.107500", "120009.717500", "120010.327500", "120010.937500", "120011.547500", "120012.157500", "120012.767500", "120013.377500", "120013.987500", "120014.597500", "120015.207500", "120015.817500", "120016.427500", "120017.037500", "120017.647500", "120018.257500", "120018.867500", "120019.477500", "120020.087500", "120020.697500", "120021.307500", "120021.917500", "120022.527500", "120023.137500", "120023.747500", "120024.357500", "120024.967500", "120025.577500", "120026.187500", "120026.797500", "120027.407500", "120028.017500", "120028.627500", "120029.237500", "120029.847500", "120030.457500", "120031.067500", "120031.677500", "120032.287500", "120032.897500", "120033.507500", "120034.117500", "120034.727500", "120035.337500", "120035.947500", "120036.557500", "120037.167500", "120037.777500", "120038.387500", "120038.997500", "120039.607500", "120040.217500", "120040.827500", "120041.437500", "120042.047500", "120042.657500", "120043.267500", "120043.877500", "120044.487500", "120045.097500", "120045.707500", "120046.317500", "120046.927500", "120047.537500", "120048.147500", "120048.757500", "120049.367500", "120049.977500", "120050.587500", "120051.197500", "120051.807500", "120052.417500", "120053.027500", "120053.637500", "120054.247500", "120054.857500", "120055.467500", "120056.077500", "120056.687500", "120057.297500", "120057.907500", "120058.517500", "120059.127500", "120059.737500", "120100.347500", "120100.957500", "120101.567500", "120102.177500", "120102.787500", "120103.397500", "120104.007500", "120104.617500", "120105.227500", "120105.837500", "120106.447500", "120107.057500", "120107.667500", "120108.277500", "120108.887500", "120109.497500", "120110.107500", "120110.717500", "120111.327500", "120111.937500", "120112.547500", "120113.157500", "120113.767500", "120114.377500", "120114.987500", "120115.597500", "120116.207500", "120116.817500", "120117.427500", "120118.037500", "120118.647500", "120119.257500", "120119.867500", "120120.477500", "120121.087500", "120121.697500", "120122.307500", "120122.917500", "120123.527500", "120124.137500", "120124.747500", "120125.357500", "120125.967500", "120126.577500", "120127.187500", "120127.797500", "120128.407500", "120129.017500", "120129.627500", "120130.237500"], "ContentTime": ["115643.723000", "115643.726000", "115643.729000", "115643.731000", "115643.733000", "115643.736000", "115643.738000", "115643.745000", "115643.748000", "115643.750000", "115643.752000", "115643.755000", "115643.757000", "115643.760000", "115643.763000", "115643.765000", "115643.768000", "115643.770000", "115643.773000", "115643.775000", "115643.777000", "115643.780000", "115643.782000", "115643.784000", "115643.787000", "115643.789000", "115643.792000", "115643.794000", "115643.796000", "115643.799000", "115643.801000", "115643.803000", "115643.806000", "115643.808000", "115643.811000", "115643.813000", "115643.815000", "115643.818000", "115703.718000", "115703.721000", "115703.724000", "115703.726000", "115703.729000", "115703.731000", "115703.734000", "115703.736000", "115703.738000", "115703.741000", "115703.743000", "115703.752000", "115703.755000", "115703.757000", "115703.759000", "115703.762000", "115703.764000", "115703.767000", "115703.769000", "115703.772000", "115703.774000", "115703.776000", "115703.779000", "115703.781000", "115703.784000", "115703.786000", "115703.789000", "115703.791000", "115703.793000", "115703.796000", "115703.798000", "115703.800000", "115723.718000", "115723.721000", "115723.723000", "115723.726000", "115723.728000", "115723.730000", "115723.733000", "115723.735000", "115723.738000", "115723.740000", "115723.743000", "115723.745000", "115723.748000", "115723.750000", "115723.752000", "115723.755000", "115723.757000", "115723.759000", "115723.762000", "115723.764000", "115723.766000", "115723.769000", "115723.771000", "115723.774000", "115723.776000", "115723.779000", "115723.781000", "115723.783000", "115723.788000", "115723.790000", "115723.792000", "115723.795000", "115723.797000", "115743.718000", "115743.721000", "115743.723000", "115743.726000", "115743.728000", "115743.730000", "115743.733000", "115743.735000", "115743.737000", "115743.740000", "115743.742000", "115743.745000", "115743.747000", "115743.749000", "115743.752000", "115743.754000", "115743.756000", "115743.759000", "115743.761000", "115743.764000", "115743.766000", "115743.768000", "115743.771000", "115743.773000", "115743.775000", "115743.778000", "115743.780000", "115743.783000", "115743.785000", "115743.787000", "115743.790000", "115743.792000", "115743.795000", "115803.718000", "115803.721000", "115803.723000", "115803.725000", "115803.728000", "115803.730000", "115803.733000", "115803.735000", "115803.737000", "115803.740000", "115803.742000", "115803.744000", "115803.747000", "115803.749000", "115803.752000", "115803.754000", "115803.756000", "115803.759000", "115803.761000", "115803.764000", "115803.766000", "115803.768000", "115803.771000", "115803.773000", "115803.776000", "115803.778000", "115803.780000", "115803.783000", "115803.785000", "115803.788000", "115803.790000", "115803.793000", "115803.795000", "115823.718000", "115823.721000", "115823.723000", "115823.726000", "115823.728000", "115823.730000", "115823.733000", "115823.735000", "115823.738000", "115823.740000", "115823.742000", "115823.745000", "115823.747000", "115823.750000", "115823.752000", "115823.754000", "115823.757000", "115823.759000", "115823.762000", "115823.764000", "115823.783000", "115823.786000", "115823.788000", "115823.790000", "115823.793000", "115823.795000", "115823.797000", "115823.800000", "115823.803000", "115823.805000", "115823.808000", "115823.810000", "115823.812000", "115843.719000", "115843.722000", "115843.724000", "115843.727000", "115843.729000", "115843.731000", "115843.734000", "115843.736000", "115843.738000", "115843.741000", "115843.743000", "115843.746000", "115843.748000", "115843.750000", "115843.753000", "115843.755000", "115843.757000", "115843.760000", "115843.763000", "115843.772000", "115843.775000", "115843.777000", "115843.779000", "115843.782000", "115843.784000", "115843.787000", "115843.789000", "115843.791000", "115843.794000", "115843.796000", "115843.798000", "115843.801000", "115903.718000", "115903.721000", "115903.724000", "115903.726000", "115903.729000", "115903.731000", "115903.733000", "115903.736000", "115903.738000", "115903.741000", "115903.743000", "115903.746000", "115903.748000", "115903.751000", "115903.753000", "115903.756000", "115903.758000", "115903.760000", "115903.763000", "115903.765000", "115903.768000", "115903.770000", "115903.772000", "115903.775000", "115903.777000", "115903.780000", "115903.782000", "115903.785000", "115903.787000", "115903.789000", "115903.792000", "115903.794000", "115903.797000", "115923.718000", "115923.721000", "115923.723000", "115923.726000", "115923.728000", "115923.731000", "115923.733000", "115923.736000", "115923.738000", "115923.740000", "115923.743000", "115923.745000", "115923.748000", "115923.750000", "115923.753000", "115923.755000", "115923.758000", "115923.760000", "115923.762000", "115923.765000", "115923.767000", "115923.770000", "115923.772000", "115923.775000", "115923.777000", "115923.780000", "115923.782000", "115923.785000", "115923.787000", "115923.789000", "115923.792000", "115923.794000", "115923.796000", "115943.718000", "115943.721000", "115943.723000", "115943.726000", "115943.728000", "115943.731000", "115943.733000", "115943.735000", "115943.738000", "115943.740000", "115943.743000", "115943.745000", "115943.748000", "115943.750000", "115943.753000", "115943.755000", "115943.757000", "115943.760000", "115943.762000", "115943.765000", "115943.767000", "115943.770000", "115943.772000", "115943.774000", "115943.777000", "115943.779000", "115943.782000", "115943.784000", "115943.787000", "115943.789000", "115943.791000", "115943.794000", "115943.796000", "120003.718000", "120003.721000", "120003.724000", "120003.726000", "120003.728000", "120003.731000", "120003.733000", "120003.736000", "120003.738000", "120003.741000", "120003.743000", "120003.746000", "120003.748000", "120003.750000", "120003.753000", "120003.755000", "120003.757000", "120003.760000", "120003.762000", "120003.765000", "120003.767000", "120003.769000", "120003.772000", "120003.774000", "120003.776000", "120003.779000", "120003.781000", "120003.784000", "120003.786000", "120003.789000", "120003.791000", "120003.793000", "120003.796000", "120023.718000", "120023.721000", "120023.723000", "120023.726000", "120023.728000", "120023.731000", "120023.733000", "120023.736000", "120023.738000", "120023.741000", "120023.743000", "120023.746000", "120023.748000", "120023.750000", "120023.753000", "120023.755000", "120023.758000", "120023.760000", "120023.763000", "120023.765000", "120023.768000", "120023.770000", "120023.773000", "120023.775000", "120023.777000", "120023.780000", "120023.783000", "120023.785000", "120023.788000", "120023.790000", "120023.793000", "120023.795000", "120043.718000", "120043.721000", "120043.723000", "120043.726000", "120043.728000", "120043.730000", "120043.733000", "120043.735000", "120043.738000", "120043.740000", "120043.747000", "120043.749000", "120043.751000", "120043.754000", "120043.756000", "120043.763000", "120043.765000", "120043.768000", "120043.770000", "120043.773000", "120043.775000", "120043.777000", "120043.780000", "120043.782000", "120043.785000", "120043.787000", "120043.790000", "120043.792000", "120043.795000", "120043.797000", "120043.799000", "120043.802000", "120043.804000", "120103.719000", "120103.722000", "120103.724000", "120103.727000", "120103.740000", "120103.742000", "120103.745000", "120103.747000", "120103.750000", "120103.752000", "120103.754000", "120103.757000", "120103.759000", "120103.762000", "120103.764000", "120103.767000", "120103.769000", "120103.771000", "120103.774000", "120103.776000", "120103.779000", "120103.781000", "120103.783000", "120103.786000", "120103.788000", "120103.791000", "120103.793000", "120103.796000", "120103.798000", "120103.800000", "120103.803000", "120103.805000", "120103.808000", "120123.718000", "120123.721000", "120123.723000", "120123.726000", "120123.728000", "120123.731000", "120123.733000", "120123.735000", "120123.738000", "120123.740000", "120123.743000", "120123.745000", "120123.747000", "120123.750000", "120123.752000", "120123.754000", "120123.757000", "120123.759000", "120123.762000", "120123.764000", "120123.767000", "120123.769000", "120123.771000", "120123.774000", "120123.776000", "120123.779000", "120123.781000", "120123.783000", "120123.786000", "120123.788000", "120123.791000", "120123.793000", "120123.796000", "120131.470000", "120131.473000", "120131.475000", "120131.478000", "120131.480000", "120131.482000", "120131.485000", "120131.487000", "120131.489000", "120131.492000", "120131.494000", "120131.497000", "120131.499000"], "InstanceCreationTime": ["115643.723000", "115643.726000", "115643.729000", "115643.731000", "115643.733000", "115643.736000", "115643.738000", "115643.745000", "115643.748000", "115643.750000", "115643.752000", "115643.755000", "115643.757000", "115643.760000", "115643.763000", "115643.765000", "115643.768000", "115643.770000", "115643.773000", "115643.775000", "115643.777000", "115643.780000", "115643.782000", "115643.784000", "115643.787000", "115643.789000", "115643.792000", "115643.794000", "115643.796000", "115643.799000", "115643.801000", "115643.803000", "115643.806000", "115643.808000", "115643.811000", "115643.813000", "115643.815000", "115643.818000", "115703.718000", "115703.721000", "115703.724000", "115703.726000", "115703.729000", "115703.731000", "115703.734000", "115703.736000", "115703.738000", "115703.741000", "115703.743000", "115703.752000", "115703.755000", "115703.757000", "115703.759000", "115703.762000", "115703.764000", "115703.767000", "115703.769000", "115703.772000", "115703.774000", "115703.776000", "115703.779000", "115703.781000", "115703.784000", "115703.786000", "115703.789000", "115703.791000", "115703.793000", "115703.796000", "115703.798000", "115703.800000", "115723.718000", "115723.721000", "115723.723000", "115723.726000", "115723.728000", "115723.730000", "115723.733000", "115723.735000", "115723.738000", "115723.740000", "115723.743000", "115723.745000", "115723.748000", "115723.750000", "115723.752000", "115723.755000", "115723.757000", "115723.759000", "115723.762000", "115723.764000", "115723.766000", "115723.769000", "115723.771000", "115723.774000", "115723.776000", "115723.779000", "115723.781000", "115723.783000", "115723.788000", "115723.790000", "115723.792000", "115723.795000", "115723.797000", "115743.718000", "115743.721000", "115743.723000", "115743.726000", "115743.728000", "115743.730000", "115743.733000", "115743.735000", "115743.737000", "115743.740000", "115743.742000", "115743.745000", "115743.747000", "115743.749000", "115743.752000", "115743.754000", "115743.756000", "115743.759000", "115743.761000", "115743.764000", "115743.766000", "115743.768000", "115743.771000", "115743.773000", "115743.775000", "115743.778000", "115743.780000", "115743.783000", "115743.785000", "115743.787000", "115743.790000", "115743.792000", "115743.795000", "115803.718000", "115803.721000", "115803.723000", "115803.725000", "115803.728000", "115803.730000", "115803.733000", "115803.735000", "115803.737000", "115803.740000", "115803.742000", "115803.744000", "115803.747000", "115803.749000", "115803.752000", "115803.754000", "115803.756000", "115803.759000", "115803.761000", "115803.764000", "115803.766000", "115803.768000", "115803.771000", "115803.773000", "115803.776000", "115803.778000", "115803.780000", "115803.783000", "115803.785000", "115803.788000", "115803.790000", "115803.793000", "115803.795000", "115823.718000", "115823.721000", "115823.723000", "115823.726000", "115823.728000", "115823.730000", "115823.733000", "115823.735000", "115823.738000", "115823.740000", "115823.742000", "115823.745000", "115823.747000", "115823.750000", "115823.752000", "115823.754000", "115823.757000", "115823.759000", "115823.762000", "115823.764000", "115823.783000", "115823.786000", "115823.788000", "115823.790000", "115823.793000", "115823.795000", "115823.797000", "115823.800000", "115823.803000", "115823.805000", "115823.808000", "115823.810000", "115823.812000", "115843.719000", "115843.722000", "115843.724000", "115843.727000", "115843.729000", "115843.731000", "115843.734000", "115843.736000", "115843.738000", "115843.741000", "115843.743000", "115843.746000", "115843.748000", "115843.750000", "115843.753000", "115843.755000", "115843.757000", "115843.760000", "115843.763000", "115843.772000", "115843.775000", "115843.777000", "115843.779000", "115843.782000", "115843.784000", "115843.787000", "115843.789000", "115843.791000", "115843.794000", "115843.796000", "115843.798000", "115843.801000", "115903.718000", "115903.721000", "115903.724000", "115903.726000", "115903.729000", "115903.731000", "115903.733000", "115903.736000", "115903.738000", "115903.741000", "115903.743000", "115903.746000", "115903.748000", "115903.751000", "115903.753000", "115903.756000", "115903.758000", "115903.760000", "115903.763000", "115903.765000", "115903.768000", "115903.770000", "115903.772000", "115903.775000", "115903.777000", "115903.780000", "115903.782000", "115903.785000", "115903.787000", "115903.789000", "115903.792000", "115903.794000", "115903.797000", "115923.718000", "115923.721000", "115923.723000", "115923.726000", "115923.728000", "115923.731000", "115923.733000", "115923.736000", "115923.738000", "115923.740000", "115923.743000", "115923.745000", "115923.748000", "115923.750000", "115923.753000", "115923.755000", "115923.758000", "115923.760000", "115923.762000", "115923.765000", "115923.767000", "115923.770000", "115923.772000", "115923.775000", "115923.777000", "115923.780000", "115923.782000", "115923.785000", "115923.787000", "115923.789000", "115923.792000", "115923.794000", "115923.796000", "115943.718000", "115943.721000", "115943.723000", "115943.726000", "115943.728000", "115943.731000", "115943.733000", "115943.735000", "115943.738000", "115943.740000", "115943.743000", "115943.745000", "115943.748000", "115943.750000", "115943.753000", "115943.755000", "115943.757000", "115943.760000", "115943.762000", "115943.765