{"AcquisitionMatrixPE": 64, "AcquisitionNumber": 1, "AcquisitionTime": "14:28:41.695000", "BandwidthPerPixelPhaseEncode": 28.935, "BaseResolution": 64, "BodyPartExamined": "BRAIN", "CoilCombinationMethod": "Sum of Squares", "ConsistencyInfo": "N4_VE11E_LATEST_20181129", "ConversionSoftware": "dcm2niix", "ConversionSoftwareVersion": "v1.0.20230411", "DerivedVendorReportedEchoSpacing": 0.000540003, "DeviceSerialNumber": "166182", "DwellTime": 3.4e-06, "EchoTime": 0.032, "EchoTrainLength": 64, "EffectiveEchoSpacing": 0.000540003, "FlipAngle": 40, "HeudiconvVersion": "0.13.1", "ImageOrientationPatientDICOM": [0.997609, 0.0688356, 0.0061673, -0.0685349, 0.996843, -0.0400873], "ImageOrientationText": "Tra>Cor(-2.3)>Sag(0.5)", "ImageType": ["ORIGINAL", "PRIMARY", "M", "ND", "NORM", "MOSAIC"], "ImagingFrequency": 123.255529, "InPlanePhaseEncodingDirectionDICOM": "COL", "InstitutionAddress": "PEARSE STREET .,City,District,IE,D2", "InstitutionName": "TCIN", "InstitutionalDepartmentName": "MRI", "MRAcquisitionType": "2D", "MagneticFieldStrength": 3, "Manufacturer": "Siemens", "ManufacturersModelName": "Prisma", "Modality": "MR", "MultibandAccelerationFactor": 4, "NonlinearGradientCorrection": false, "PartialFourier": 1, "PatientPosition": "HFS", "PercentPhaseFOV": 100, "PercentSampling": 100, "PhaseEncodingDirection": "j-", "PhaseEncodingSteps": 64, "PhaseResolution": 1, "PixelBandwidth": 2300, "ProcedureStepDescription": "Rhodri^Head BOLD", "ProtocolName": "cmrr_mbep2d_Pictures_AP_RDS", "PulseSequenceDetails": "%SiemensSeq%\\ep2d_bold", "ReceiveCoilActiveElements": "HC2,4,6,7;SC", "ReceiveCoilName": "SpecialPurpose_4", "ReconMatrixPE": 64, "RefLinesPE": 12, "RepetitionTime": 0.61, "SAR": 0.32625, "ScanOptions": "FS", "ScanningSequence": "EP", "SequenceName": "*epfid2d1_64", "SequenceVariant": "SK", "SeriesDescription": "cmrr_mbep2d_Pictures_AP_RDS", "SeriesNumber": 8, "ShimSetting": [-3494, -7505, 3960, 888, -17, 554, 443, -45], "SliceThickness": 3, "SliceTiming": [0.2625, 0, 0.3275, 0.065, 0.3925, 0.1325, 0.46, 0.1975, 0.525, 0.2625, 0, 0.3275, 0.065, 0.3925, 0.1325, 0.46, 0.1975, 0.525, 0.2625, 0, 0.3275, 0.065, 0.3925, 0.1325, 0.46, 0.1975, 0.525, 0.2625, 0, 0.3275, 0.065, 0.3925, 0.1325, 0.46, 0.1975, 0.525], "SoftwareVersions": "syngo MR E11", "SpacingBetweenSlices": 3.3, "StationName": "AWP166182", "TaskName": "pictures", "TotalReadoutTime": 0.0340202, "TxRefAmp": 235.854, "dcmmeta_affine": [[-2.9928269386291504, -0.2056046724319458, 0.029393956065177917, 101.52249145507812], [-0.20650669932365417, 2.9905290603637695, -0.13057690858840942, -90.18852233886719], [0.018501896411180496, 0.12026185542345047, 3.2972846031188965, -92.3919677734375], [0.0, 0.0, 0.0, 1.0]], "dcmmeta_reorient_transform": [[0.0, -1.0, 0.0, 63.0], [1.0, 0.0, 0.0, 0.0], [0.0, 0.0, 1.0, 0.0], [0.0, 0.0, 0.0, 1.0]], "dcmmeta_shape": [64, 64, 36, 510], "dcmmeta_slice_dim": 2, "dcmmeta_version": 0.6, "global": {"const": {"AcquisitionMatrix": [64, 0, 0, 64], "AngioFlag": "N", "BitsAllocated": 16, "BitsStored": 12, "BodyPartExamined": "BRAIN", "Columns": 384, "EchoNumbers": 1, "EchoTime": 32.0, "EchoTrainLength": 64, "FlipAngle": 40.0, "HighBit": 11, "ImageOrientationPatient": [0.99760895611115, 0.06883556574634, 0.00616729885877, -0.0685348919328, 0.99684300578848, -0.0400872847465], "ImagePositionPatient": [-534.52494458661, -609.74052183495, -68.533880731202], "ImageType": ["ORIGINAL", "PRIMARY", "M", "ND", "NORM", "MOSAIC"], "ImagedNucleus": "1H", "ImagingFrequency": 123.255529, "InPlanePhaseEncodingDirection": "COL", "MRAcquisitionType": "2D", "MagneticFieldStrength": 3.0, "Manufacturer": "SIEMENS", "ManufacturerModelName": "Prisma", "Modality": "MR", "NumberOfAverages": 1.0, "NumberOfPhaseEncodingSteps": 64, "PercentPhaseFieldOfView": 100.0, "PercentSampling": 100.0, "PerformedProcedureStepStartTime": "140850.634000", "PhotometricInterpretation": "MONOCHROME2", "PixelBandwidth": 2300.0, "PixelRepresentation": 0, "PixelSpacing": [3.0, 3.0], "ProtocolName": "cmrr_mbep2d_Pictures_AP_RDS", "RepetitionTime": 610.0, "Rows": 384, "SAR": 0.32624963170782, "SamplesPerPixel": 1, "ScanOptions": "FS", "ScanningSequence": "EP", "SequenceName": "*epfid2d1_64", "SequenceVariant": "SK", "SeriesDescription": "cmrr_mbep2d_Pictures_AP_RDS", "SeriesNumber": 8, "SeriesTime": "142902.217000", "SliceLocation": -87.843010887581, "SliceThickness": 3.0, "SmallestImagePixelValue": 0, "SoftwareVersions": "syngo MR E11", "SpacingBetweenSlices": 3.2999999453296, "SpecificCharacterSet": "ISO_IR 100", "StudyID": "1", "StudyTime": "140850.410000", "TransmitCoilName": "Body", "VariableFlipAngleFlag": "N", "WindowCenterWidthExplanation": "Algo1"}, "slices": {}}, "time": {"samples": {"AcquisitionNumber": [1, 2, 3, 4, 5, 6, 7, 8, 9, 10, 11, 12, 13, 14, 15, 16, 17, 18, 19, 20, 21, 22, 23, 24, 25, 26, 27, 28, 29, 30, 31, 32, 33, 34, 35, 36, 37, 38, 39, 40, 41, 42, 43, 44, 45, 46, 47, 48, 49, 50, 51, 52, 53, 54, 55, 56, 57, 58, 59, 60, 61, 62, 63, 64, 65, 66, 67, 68, 69, 70, 71, 72, 73, 74, 75, 76, 77, 78, 79, 80, 81, 82, 83, 84, 85, 86, 87, 88, 89, 90, 91, 92, 93, 94, 95, 96, 97, 98, 99, 100, 101, 102, 103, 104, 105, 106, 107, 108, 109, 110, 111, 112, 113, 114, 115, 116, 117, 118, 119, 120, 121, 122, 123, 124, 125, 126, 127, 128, 129, 130, 131, 132, 133, 134, 135, 136, 137, 138, 139, 140, 141, 142, 143, 144, 145, 146, 147, 148, 149, 150, 151, 152, 153, 154, 155, 156, 157, 158, 159, 160, 161, 162, 163, 164, 165, 166, 167, 168, 169, 170, 171, 172, 173, 174, 175, 176, 177, 178, 179, 180, 181, 182, 183, 184, 185, 186, 187, 188, 189, 190, 191, 192, 193, 194, 195, 196, 197, 198, 199, 200, 201, 202, 203, 204, 205, 206, 207, 208, 209, 210, 211, 212, 213, 214, 215, 216, 217, 218, 219, 220, 221, 222, 223, 224, 225, 226, 227, 228, 229, 230, 231, 232, 233, 234, 235, 236, 237, 238, 239, 240, 241, 242, 243, 244, 245, 246, 247, 248, 249, 250, 251, 252, 253, 254, 255, 256, 257, 258, 259, 260, 261, 262, 263, 264, 265, 266, 267, 268, 269, 270, 271, 272, 273, 274, 275, 276, 277, 278, 279, 280, 281, 282, 283, 284, 285, 286, 287, 288, 289, 290, 291, 292, 293, 294, 295, 296, 297, 298, 299, 300, 301, 302, 303, 304, 305, 306, 307, 308, 309, 310, 311, 312, 313, 314, 315, 316, 317, 318, 319, 320, 321, 322, 323, 324, 325, 326, 327, 328, 329, 330, 331, 332, 333, 334, 335, 336, 337, 338, 339, 340, 341, 342, 343, 344, 345, 346, 347, 348, 349, 350, 351, 352, 353, 354, 355, 356, 357, 358, 359, 360, 361, 362, 363, 364, 365, 366, 367, 368, 369, 370, 371, 372, 373, 374, 375, 376, 377, 378, 379, 380, 381, 382, 383, 384, 385, 386, 387, 388, 389, 390, 391, 392, 393, 394, 395, 396, 397, 398, 399, 400, 401, 402, 403, 404, 405, 406, 407, 408, 409, 410, 411, 412, 413, 414, 415, 416, 417, 418, 419, 420, 421, 422, 423, 424, 425, 426, 427, 428, 429, 430, 431, 432, 433, 434, 435, 436, 437, 438, 439, 440, 441, 442, 443, 444, 445, 446, 447, 448, 449, 450, 451, 452, 453, 454, 455, 456, 457, 458, 459, 460, 461, 462, 463, 464, 465, 466, 467, 468, 469, 470, 471, 472, 473, 474, 475, 476, 477, 478, 479, 480, 481, 482, 483, 484, 485, 486, 487, 488, 489, 490, 491, 492, 493, 494, 495, 496, 497, 498, 499, 500, 501, 502, 503, 504, 505, 506, 507, 508, 509, 510], "AcquisitionTime": ["142841.695000", "142842.305000", "142842.915000", "142843.525000", "142844.135000", "142844.745000", "142845.355000", "142845.965000", "142846.575000", "142847.185000", "142847.795000", "142848.405000", "142849.015000", "142849.625000", "142850.235000", "142850.845000", "142851.455000", "142852.065000", "142852.675000", "142853.285000", "142853.895000", "142854.505000", "142855.115000", "142855.725000", "142856.335000", "142856.945000", "142857.555000", "142858.165000", "142858.775000", "142859.385000", "142859.995000", "142900.605000", "142901.215000", "142901.825000", "142902.435000", "142903.045000", "142903.655000", "142904.265000", "142904.875000", "142905.485000", "142906.095000", "142906.705000", "142907.315000", "142907.925000", "142908.535000", "142909.145000", "142909.755000", "142910.365000", "142910.975000", "142911.585000", "142912.195000", "142912.805000", "142913.415000", "142914.025000", "142914.635000", "142915.245000", "142915.855000", "142916.465000", "142917.075000", "142917.685000", "142918.295000", "142918.905000", "142919.515000", "142920.125000", "142920.735000", "142921.345000", "142921.955000", "142922.565000", "142923.175000", "142923.785000", "142924.395000", "142925.005000", "142925.615000", "142926.225000", "142926.835000", "142927.445000", "142928.055000", "142928.665000", "142929.275000", "142929.885000", "142930.495000", "142931.105000", "142931.715000", "142932.325000", "142932.935000", "142933.545000", "142934.155000", "142934.765000", "142935.375000", "142935.985000", "142936.595000", "142937.205000", "142937.815000", "142938.425000", "142939.035000", "142939.645000", "142940.255000", "142940.865000", "142941.475000", "142942.085000", "142942.695000", "142943.305000", "142943.915000", "142944.525000", "142945.135000", "142945.745000", "142946.355000", "142946.965000", "142947.575000", "142948.185000", "142948.795000", "142949.405000", "142950.015000", "142950.625000", "142951.235000", "142951.845000", "142952.455000", "142953.065000", "142953.675000", "142954.285000", "142954.895000", "142955.505000", "142956.115000", "142956.725000", "142957.335000", "142957.945000", "142958.555000", "142959.165000", "142959.775000", "143000.385000", "143000.995000", "143001.605000", "143002.215000", "143002.825000", "143003.435000", "143004.045000", "143004.655000", "143005.265000", "143005.875000", "143006.485000", "143007.095000", "143007.705000", "143008.315000", "143008.925000", "143009.535000", "143010.145000", "143010.755000", "143011.365000", "143011.975000", "143012.585000", "143013.195000", "143013.805000", "143014.415000", "143015.025000", "143015.635000", "143016.245000", "143016.855000", "143017.465000", "143018.075000", "143018.685000", "143019.295000", "143019.905000", "143020.515000", "143021.125000", "143021.735000", "143022.345000", "143022.955000", "143023.565000", "143024.175000", "143024.785000", "143025.395000", "143026.005000", "143026.615000", "143027.225000", "143027.835000", "143028.445000", "143029.055000", "143029.665000", "143030.275000", "143030.885000", "143031.495000", "143032.105000", "143032.715000", "143033.325000", "143033.935000", "143034.545000", "143035.155000", "143035.765000", "143036.375000", "143036.985000", "143037.595000", "143038.205000", "143038.815000", "143039.425000", "143040.035000", "143040.645000", "143041.255000", "143041.865000", "143042.475000", "143043.085000", "143043.695000", "143044.305000", "143044.915000", "143045.525000", "143046.135000", "143046.745000", "143047.355000", "143047.965000", "143048.575000", "143049.185000", "143049.795000", "143050.405000", "143051.015000", "143051.625000", "143052.235000", "143052.845000", "143053.455000", "143054.065000", "143054.675000", "143055.285000", "143055.895000", "143056.505000", "143057.115000", "143057.725000", "143058.335000", "143058.945000", "143059.555000", "143100.165000", "143100.775000", "143101.385000", "143101.995000", "143102.605000", "143103.215000", "143103.825000", "143104.435000", "143105.045000", "143105.655000", "143106.265000", "143106.875000", "143107.485000", "143108.095000", "143108.705000", "143109.315000", "143109.925000", "143110.535000", "143111.145000", "143111.755000", "143112.365000", "143112.975000", "143113.585000", "143114.195000", "143114.805000", "143115.415000", "143116.025000", "143116.635000", "143117.245000", "143117.855000", "143118.465000", "143119.075000", "143119.685000", "143120.295000", "143120.905000", "143121.515000", "143122.125000", "143122.735000", "143123.345000", "143123.955000", "143124.565000", "143125.175000", "143125.785000", "143126.395000", "143127.005000", "143127.615000", "143128.225000", "143128.835000", "143129.445000", "143130.055000", "143130.665000", "143131.275000", "143131.885000", "143132.495000", "143133.105000", "143133.715000", "143134.325000", "143134.935000", "143135.545000", "143136.155000", "143136.765000", "143137.375000", "143137.985000", "143138.595000", "143139.205000", "143139.815000", "143140.425000", "143141.035000", "143141.645000", "143142.255000", "143142.865000", "143143.475000", "143144.085000", "143144.695000", "143145.305000", "143145.915000", "143146.525000", "143147.135000", "143147.745000", "143148.355000", "143148.965000", "143149.575000", "143150.185000", "143150.795000", "143151.405000", "143152.015000", "143152.625000", "143153.235000", "143153.845000", "143154.455000", "143155.065000", "143155.675000", "143156.285000", "143156.895000", "143157.505000", "143158.115000", "143158.725000", "143159.335000", "143159.945000", "143200.555000", "143201.165000", "143201.775000", "143202.385000", "143202.995000", "143203.605000", "143204.215000", "143204.825000", "143205.435000", "143206.045000", "143206.655000", "143207.265000", "143207.875000", "143208.485000", "143209.095000", "143209.705000", "143210.315000", "143210.925000", "143211.535000", "143212.145000", "143212.755000", "143213.365000", "143213.975000", "143214.585000", "143215.195000", "143215.805000", "143216.415000", "143217.025000", "143217.635000", "143218.245000", "143218.855000", "143219.465000", "143220.075000", "143220.685000", "143221.295000", "143221.905000", "143222.515000", "143223.125000", "143223.735000", "143224.345000", "143224.955000", "143225.565000", "143226.175000", "143226.785000", "143227.395000", "143228.005000", "143228.615000", "143229.225000", "143229.835000", "143230.445000", "143231.055000", "143231.665000", "143232.275000", "143232.885000", "143233.495000", "143234.105000", "143234.715000", "143235.325000", "143235.935000", "143236.545000", "143237.155000", "143237.765000", "143238.375000", "143238.985000", "143239.595000", "143240.205000", "143240.815000", "143241.425000", "143242.035000", "143242.645000", "143243.255000", "143243.865000", "143244.475000", "143245.085000", "143245.695000", "143246.305000", "143246.915000", "143247.525000", "143248.135000", "143248.745000", "143249.355000", "143249.965000", "143250.575000", "143251.185000", "143251.795000", "143252.405000", "143253.015000", "143253.625000", "143254.235000", "143254.845000", "143255.455000", "143256.065000", "143256.675000", "143257.285000", "143257.895000", "143258.505000", "143259.115000", "143259.725000", "143300.335000", "143300.945000", "143301.555000", "143302.165000", "143302.775000", "143303.385000", "143303.995000", "143304.605000", "143305.215000", "143305.825000", "143306.435000", "143307.045000", "143307.655000", "143308.265000", "143308.875000", "143309.485000", "143310.095000", "143310.705000", "143311.315000", "143311.925000", "143312.535000", "143313.145000", "143313.755000", "143314.365000", "143314.975000", "143315.585000", "143316.195000", "143316.805000", "143317.415000", "143318.025000", "143318.635000", "143319.245000", "143319.855000", "143320.465000", "143321.075000", "143321.685000", "143322.295000", "143322.905000", "143323.515000", "143324.125000", "143324.735000", "143325.345000", "143325.955000", "143326.565000", "143327.175000", "143327.785000", "143328.395000", "143329.005000", "143329.615000", "143330.225000", "143330.835000", "143331.445000", "143332.055000", "143332.665000", "143333.275000", "143333.885000", "143334.495000", "143335.105000", "143335.715000", "143336.325000", "143336.935000", "143337.545000", "143338.155000", "143338.765000", "143339.375000", "143339.985000", "143340.595000", "143341.205000", "143341.815000", "143342.425000", "143343.035000", "143343.645000", "143344.255000", "143344.865000", "143345.475000", "143346.085000", "143346.695000", "143347.305000", "143347.915000", "143348.525000", "143349.135000", "143349.745000", "143350.355000", "143350.965000", "143351.575000", "143352.185000"], "ContentTime": ["142902.220000", "142902.224000", "142902.226000", "142902.228000", "142902.231000", "142902.233000", "142902.235000", "142902.238000", "142902.240000", "142902.242000", "142902.245000", "142902.247000", "142902.249000", "142902.252000", "142902.254000", "142902.256000", "142902.259000", "142902.261000", "142902.263000", "142902.266000", "142902.268000", "142902.271000", "142902.273000", "142902.275000", "142902.278000", "142902.287000", "142902.290000", "142902.292000", "142902.294000", "142902.297000", "142902.299000", "142902.301000", "142902.304000", "142922.216000", "142922.219000", "142922.221000", "142922.223000", "142922.226000", "142922.228000", "142922.230000", "142922.233000", "142922.235000", "142922.238000", "142922.240000", "142922.242000", "142922.245000", "142922.247000", "142922.249000", "142922.252000", "142922.254000", "142922.256000", "142922.259000", "142922.261000", "142922.263000", "142922.266000", "142922.276000", "142922.278000", "142922.280000", "142922.293000", "142922.295000", "142922.297000", "142922.300000", "142922.302000", "142922.304000", "142922.307000", "142922.309000", "142942.216000", "142942.219000", "142942.221000", "142942.223000", "142942.226000", "142942.228000", "142942.230000", "142942.233000", "142942.235000", "142942.238000", "142942.240000", "142942.242000", "142942.245000", "142942.247000", "142942.250000", "142942.252000", "142942.254000", "142942.257000", "142942.259000", "142942.269000", "142942.271000", "142942.273000", "142942.276000", "142942.278000", "142942.280000", "142942.283000", "142942.285000", "142942.287000", "142942.290000", "142942.292000", "142942.294000", "142942.297000", "142942.299000", "143002.215000", "143002.218000", "143002.220000", "143002.223000", "143002.225000", "143002.228000", "143002.230000", "143002.232000", "143002.235000", "143002.237000", "143002.239000", "143002.242000", "143002.244000", "143002.246000", "143002.249000", "143002.251000", "143002.253000", "143002.256000", "143002.258000", "143002.260000", "143002.263000", "143002.265000", "143002.267000", "143002.270000", "143002.272000", "143002.274000", "143002.277000", "143002.279000", "143002.281000", "143002.284000", "143002.286000", "143002.288000", "143022.215000", "143022.218000", "143022.220000", "143022.222000", "143022.225000", "143022.227000", "143022.229000", "143022.232000", "143022.234000", "143022.236000", "143022.239000", "143022.241000", "143022.243000", "143022.246000", "143022.248000", "143022.251000", "143022.253000", "143022.255000", "143022.258000", "143022.260000", "143022.262000", "143022.265000", "143022.267000", "143022.269000", "143022.272000", "143022.274000", "143022.276000", "143022.279000", "143022.281000", "143022.284000", "143022.286000", "143022.288000", "143022.291000", "143042.215000", "143042.218000", "143042.220000", "143042.223000", "143042.225000", "143042.228000", "143042.230000", "143042.232000", "143042.235000", "143042.237000", "143042.240000", "143042.242000", "143042.244000", "143042.247000", "143042.249000", "143042.252000", "143042.254000", "143042.256000", "143042.259000", "143042.261000", "143042.263000", "143042.266000", "143042.268000", "143042.271000", "143042.273000", "143042.276000", "143042.278000", "143042.280000", "143042.283000", "143042.285000", "143042.287000", "143042.290000", "143042.292000", "143102.216000", "143102.219000", "143102.221000", "143102.224000", "143102.226000", "143102.228000", "143102.231000", "143102.233000", "143102.235000", "143102.238000", "143102.240000", "143102.243000", "143102.245000", "143102.247000", "143102.250000", "143102.252000", "143102.254000", "143102.257000", "143102.259000", "143102.261000", "143102.264000", "143102.266000", "143102.268000", "143102.271000", "143102.273000", "143102.275000", "143102.278000", "143102.280000", "143102.282000", "143102.285000", "143102.287000", "143102.290000", "143102.292000", "143122.216000", "143122.219000", "143122.221000", "143122.224000", "143122.226000", "143122.228000", "143122.231000", "143122.233000", "143122.235000", "143122.238000", "143122.241000", "143122.244000", "143122.246000", "143122.248000", "143122.251000", "143122.253000", "143122.255000", "143122.258000", "143122.260000", "143122.262000", "143122.265000", "143122.267000", "143122.270000", "143122.272000", "143122.274000", "143122.277000", "143122.279000", "143122.281000", "143122.284000", "143122.286000", "143122.288000", "143122.291000", "143142.216000", "143142.219000", "143142.221000", "143142.224000", "143142.226000", "143142.228000", "143142.231000", "143142.233000", "143142.235000", "143142.238000", "143142.240000", "143142.242000", "143142.245000", "143142.247000", "143142.249000", "143142.252000", "143142.254000", "143142.256000", "143142.259000", "143142.262000", "143142.264000", "143142.266000", "143142.269000", "143142.271000", "143142.273000", "143142.276000", "143142.278000", "143142.280000", "143142.283000", "143142.285000", "143142.287000", "143142.290000", "143142.292000", "143202.216000", "143202.219000", "143202.221000", "143202.224000", "143202.226000", "143202.229000", "143202.231000", "143202.234000", "143202.236000", "143202.238000", "143202.241000", "143202.243000", "143202.245000", "143202.248000", "143202.250000", "143202.252000", "143202.255000", "143202.257000", "143202.259000", "143202.262000", "143202.264000", "143202.267000", "143202.269000", "143202.271000", "143202.274000", "143202.276000", "143202.279000", "143202.281000", "143202.283000", "143202.286000", "143202.288000", "143202.290000", "143202.293000", "143222.215000", "143222.218000", "143222.220000", "143222.223000", "143222.225000", "143222.227000", "143222.238000", "143222.240000", "143222.242000", "143222.245000", "143222.247000", "143222.249000", "143222.252000", "143222.254000", "143222.256000", "143222.259000", "143222.261000", "143222.264000", "143222.266000", "143222.268000", "143222.271000", "143222.273000", "143222.275000", "143222.278000", "143222.280000", "143222.283000", "143222.285000", "143222.287000", "143222.290000", "143222.292000", "143222.294000", "143222.297000", "143222.299000", "143242.215000", "143242.218000", "143242.220000", "143242.222000", "143242.225000", "143242.227000", "143242.229000", "143242.232000", "143242.234000", "143242.246000", "143242.249000", "143242.251000", "143242.254000", "143242.256000", "143242.258000", "143242.261000", "143242.263000", "143242.266000", "143242.268000", "143242.270000", "143242.273000", "143242.275000", "143242.277000", "143242.279000", "143242.282000", "143242.284000", "143242.286000", "143242.289000", "143242.291000", "143242.293000", "143242.296000", "143242.298000", "143242.301000", "143302.215000", "143302.218000", "143302.220000", "143302.223000", "143302.225000", "143302.227000", "143302.230000", "143302.232000", "143302.234000", "143302.237000", "143302.239000", "143302.241000", "143302.244000", "143302.246000", "143302.248000", "143302.251000", "143302.253000", "143302.255000", "143302.258000", "143302.260000", "143302.263000", "143302.265000", "143302.267000", "143302.270000", "143302.273000", "143302.275000", "143302.277000", "143302.280000", "143302.282000", "143302.284000", "143302.287000", "143302.289000", "143322.216000", "143322.219000", "143322.221000", "143322.223000", "143322.226000", "143322.228000", "143322.231000", "143322.233000", "143322.235000", "143322.238000", "143322.240000", "143322.243000", "143322.246000", "143322.248000", "143322.251000", "143322.253000", "143322.256000", "143322.258000", "143322.260000", "143322.263000", "143322.265000", "143322.267000", "143322.270000", "143322.272000", "143322.274000", "143322.277000", "143322.279000", "143322.282000", "143322.284000", "143322.286000", "143322.289000", "143322.291000", "143322.294000", "143342.216000", "143342.219000", "143342.221000", "143342.224000", "143342.226000", "143342.228000", "143342.231000", "143342.233000", "143342.235000", "143342.238000", "143342.240000", "143342.242000", "143342.245000", "143342.247000", "143342.250000", "143342.252000", "143342.254000", "143342.257000", "143342.259000", "143342.261000", "143342.264000", "143342.266000", "143342.268000", "143342.271000", "143342.273000", "143342.275000", "143342.278000", "143342.280000", "143342.282000", "143342.285000", "143342.287000", "143342.289000", "143342.292000", "143352.868000", "143352.871000", "143352.873000", "143352.876000", "143352.878000", "143352.881000", "143352.883000", "143352.885000", "143352.888000", "143352.890000", "143352.892000", "143352.895000", "143352.897000", "143352.900000", "143352.902000", "143352.904000", "143352.907000", "143352.909000"], "InstanceCreationTime": ["142902.220000", "142902.224000", "142902.226000", "142902.228000", "142902.231000", "142902.233000", "142902.235000", "142902.238000", "142902.240000", "142902.242000", "142902.245000", "142902.247000", "142902.249000", "142902.252000", "142902.254000", "142902.256000", "142902.259000", "142902.261000", "142902.263000", "142902.266000", "142902.268000", "142902.271000", "142902.273000", "142902.275000", "142902.278000", "142902.287000", "142902.290000", "142902.292000", "142902.294000", "142902.297000", "142902.299000", "142902.301000", "142902.304000", "142922.216000", "142922.219000", "142922.221000", "142922.223000", "142922.226000", "142922.228000", "142922.230000", "142922.233000", "142922.235000", "142922.238000", "142922.240000", "142922.242000", "142922.245000", "142922.247000", "142922.249000", "142922.252000", "142922.254000", "142922.256000", "142922.259000", "142922.261000", "142922.263000", "142922.266000", "142922.276000", "142922.278000", "142922.280000", "142922.293000", "142922.295000", "142922.297000", "142922.300000", "142922.302000", "142922.304000", "142922.307000", "142922.309000", "142942.216000", "142942.219000", "142942.221000", "142942.223000", "142942.226000", "142942.228000", "142942.230000", "142942.233000", "142942.235000", "142942.238000", "142942.240000", "142942.242000", "142942.245000", "142942.247000", "142942.250000", "142942.252000", "142942.254000", "142942.257000", "142942.259000", "142942.269000", "142942.271000", "142942.273000", "142942.276000", "142942.278000", "142942.280000", "142942.283000", "142942.285000", "142942.287000", "142942.290000", "142942.292000", "142942.294000", "142942.297000", "142942.299000", "143002.215000", "143002.218000", "143002.220000", "143002.223000", "143002.225000", "143002.228000", "143002.230000", "143002.232000", "143002.235000", "143002.237000", "143002.239000", "143002.242000", "143002.244000", "143002.246000", "143002.249000", "143002.251000", "143002.253000", "143002.256000", "143002.258000", "143002.260000", "143002.263000", "143002.265000", "143002.267000", "143002.270000", "143002.272000", "143002.274000", "143002.277000", "143002.279000", "143002.281000", "143002.284000", "143002.286000", "143002.288000", "143022.215000", "143022.218000", "143022.220000", "143022.222000", "143022.225000", "143022.227000", "143022.229000", "143022.232000", "143022.234000", "143022.236000", "143022.239000", "143022.241000", "143022.243000", "143022.246000", "143022.248000", "143022.251000", "143022.253000", "143022.255000", "143022.258000", "143022.260000", "143022.262000", "143022.265000", "143022.267000", "143022.269000", "143022.272000", "143022.274000", "143022.276000", "143022.279000", "143022.281000", "143022.284000", "143022.286000", "143022.288000", "143022.291000", "143042.215000", "143042.218000", "143042.220000", "143042.223000", "143042.225000", "143042.228000", "143042.230000", "143042.232000", "143042.235000", "143042.237000", "143042.240000", "143042.242000", "143042.244000", "143042.247000", "143042.249000", "143042.252000", "143042.254000", "143042.256000", "143042.259000", "143042.261000", "143042.263000", "143042.266000", "143042.268000", "143042.271000", "143042.273000", "143042.276000", "143042.278000", "143042.280000", "143042.283000", "143042.285000", "143042.287000", "143042.290000", "143042.292000", "143102.216000", "143102.219000", "143102.221000", "143102.224000", "143102.226000", "143102.228000", "143102.231000", "143102.233000", "143102.235000", "143102.238000", "143102.240000", "143102.243000", "143102.245000", "143102.247000", "143102.250000", "143102.252000", "143102.254000", "143102.257000", "143102.259000", "143102.261000", "143102.264000", "143102.266000", "143102.268000", "143102.271000", "143102.273000", "143102.275000", "143102.278000", "143102.280000", "143102.282000", "143102.285000", "143102.287000", "143102.290000", "143102.292000", "143122.216000", "143122.219000", "143122.221000", "143122.224000", "143122.226000", "143122.228000", "143122.231000", "143122.233000", "143122.235000", "143122.238000", "143122.241000", "143122.244000", "143122.246000", "143122.248000", "143122.251000", "143122.253000", "143122.255000", "143122.258000", "143122.260000", "143122.262000", "143122.265000", "143122.267000", "143122.270000", "143122.272000", "143122.274000", "143122.277000", "143122.279000", "143122.281000", "143122.284000", "143122.286000", "143122.288000", "143122.291000", "143142.216000", "143142.219000", "143142.221000", "143142.224000", "143142.226000", "143142.228000", "143142.231000", "143142.233000", "143142.235000", "143142.238000", "143142.240000", "143142.242000", "143142.245000", "143142.247000", "143142.249000", "143142.252000", "143142.254000", "143142.256000", "143142.259000", "143142.262000", "143142.264000", "143142.266000", "143142.269000", "143142.271000", "143142.273000", "143142.276000", "143142.278000", "143142.280000", "143142.283000", "143142.285000", "143142.287000", "143142.290000", "143142.292000", "143202.216000", "143202.219000", "143202.221000", "143202.224000", "143202.226000", "143202.229000", "143202.231000", "143202.234000", "143202.236000", "143202.238000", "143202.241000", "143202.243000", "143202.245000", "143202.248000", "143202.250000", "143202.252000", "143202.255000", "143202.257000", "143202.259000", "143202.262000", "143202.264000", "143202.267000", "143202.269000", "143202.271000", "14320