{"AcquisitionMatrixPE": 64, "AcquisitionNumber": 1, "AcquisitionTime": "15:36:0.715000", "BandwidthPerPixelPhaseEncode": 28.935, "BaseResolution": 64, "BodyPartExamined": "BRAIN", "CoilString": "HC2_4_6_7;SC", "ConsistencyInfo": "N4_VE11E_LATEST_20181129", "ConversionSoftware": "dcm2niix", "ConversionSoftwareVersion": "v1.0.20190902", "DerivedVendorReportedEchoSpacing": 0.000540003, "DeviceSerialNumber": "166182", "DwellTime": 3.4e-06, "EchoTime": 0.032, "EchoTrainLength": 64, "EffectiveEchoSpacing": 0.000540003, "FlipAngle": 40, "ImageOrientationPatientDICOM": [0.998552, 0.0273709, -0.0463183, -0.0312063, 0.995959, -0.0842183], "ImageType": ["ORIGINAL", "PRIMARY", "M", "ND", "NORM", "MOSAIC"], "ImagingFrequency": 123.256, "InPlanePhaseEncodingDirectionDICOM": "COL", "InstitutionAddress": "PEARSE_STREET_._City_District_IE_D2", "InstitutionName": "TCIN", "InstitutionalDepartmentName": "MRI", "MRAcquisitionType": "2D", "MagneticFieldStrength": 3, "Manufacturer": "Siemens", "ManufacturersModelName": "Prisma", "Modality": "MR", "MultibandAccelerationFactor": 4, "PartialFourier": 1, "PatientPosition": "HFS", "PercentPhaseFOV": 100, "PhaseEncodingDirection": "j-", "PhaseEncodingSteps": 64, "PhaseResolution": 1, "PixelBandwidth": 2300, "ProcedureStepDescription": "Rhodri_Head_BOLD", "ProtocolName": "cmrr_mbep2d_Pictures_AP_RDS", "PulseSequenceDetails": "%SiemensSeq%_ep2d_bold", "ReceiveCoilActiveElements": "HC2,4,6,7;SC", "ReceiveCoilName": "SpecialPurpose_4", "ReconMatrixPE": 64, "RefLinesPE": 12, "RepetitionTime": 0.61, "SAR": 0.422068, "ScanOptions": "FS", "ScanningSequence": "EP", "SequenceName": "_epfid2d1_64", "SequenceVariant": "SK", "SeriesDescription": "cmrr_mbep2d_Pictures_AP_RDS", "SeriesNumber": 9, "ShimSetting": [-3626, -7554, 3970, 1050, -49, 470, 303, 42], "SliceThickness": 3, "SliceTiming": [0.2625, 0, 0.3275, 0.065, 0.3925, 0.1325, 0.46, 0.1975, 0.525, 0.2625, 0, 0.3275, 0.065, 0.3925, 0.1325, 0.46, 0.1975, 0.525, 0.2625, 0, 0.3275, 0.065, 0.3925, 0.1325, 0.46, 0.1975, 0.525, 0.2625, 0, 0.3275, 0.065, 0.3925, 0.1325, 0.46, 0.1975, 0.525], "SoftwareVersions": "syngo_MR_E11", "SpacingBetweenSlices": 3.3, "StationName": "AWP166182", "TaskName": "pictures", "TotalReadoutTime": 0.0340202, "TxRefAmp": 244.91, "dcmmeta_affine": [[-2.995655059814453, -0.09361885488033295, -0.14462561905384064, 98.3515396118164], [-0.08211258798837662, 2.9878756999969482, -0.28228768706321716, -99.85739135742188], [-0.1389547884464264, 0.2526548504829407, 3.284721612930298, -84.62042999267578], [0.0, 0.0, 0.0, 1.0]], "dcmmeta_reorient_transform": [[0.0, -1.0, 0.0, 63.0], [1.0, 0.0, 0.0, 0.0], [0.0, 0.0, 1.0, 0.0], [0.0, 0.0, 0.0, 1.0]], "dcmmeta_shape": [64, 64, 36, 510], "dcmmeta_slice_dim": 2, "dcmmeta_version": 0.6, "global": {"const": {"AcquisitionMatrix": [64, 0, 0, 64], "AngioFlag": "N", "BitsAllocated": 16, "BitsStored": 12, "BodyPartExamined": "BRAIN", "Columns": 384, "EchoNumbers": 1, "EchoTime": 32.0, "EchoTrainLength": 64, "FlipAngle": 40.0, "HighBit": 11, "ImageOrientationPatient": [0.99855167835621, 0.02737086195436, -0.0463182638693, -0.0312062855115, 0.99595855779352, -0.084218281284], "ImagePositionPatient": [-556.7793417847, -579.57690020898, -6.0456301674649], "ImageType": ["ORIGINAL", "PRIMARY", "M", "ND", "NORM", "MOSAIC"], "ImagedNucleus": "1H", "ImagingFrequency": 123.256157, "InPlanePhaseEncodingDirection": "COL", "MRAcquisitionType": "2D", "MagneticFieldStrength": 3.0, "Manufacturer": "SIEMENS", "ManufacturerModelName": "Prisma", "Modality": "MR", "NumberOfAverages": 1.0, "NumberOfPhaseEncodingSteps": 64, "PercentPhaseFieldOfView": 100.0, "PercentSampling": 100.0, "PerformedProcedureStepStartTime": "150340.219000", "PhotometricInterpretation": "MONOCHROME2", "PixelBandwidth": 2300.0, "PixelRepresentation": 0, "PixelSpacing": [3.0, 3.0], "ProtocolName": "cmrr_mbep2d_Pictures_AP_RDS", "RepetitionTime": 610.0, "Rows": 384, "SAR": 0.42206774275211, "SamplesPerPixel": 1, "ScanOptions": "FS", "ScanningSequence": "EP", "SequenceName": "*epfid2d1_64", "SequenceVariant": "SK", "SeriesDescription": "cmrr_mbep2d_Pictures_AP_RDS", "SeriesNumber": 9, "SeriesTime": "153628.587000", "SliceLocation": -79.997029768848, "SliceThickness": 3.0, "SmallestImagePixelValue": 0, "SoftwareVersions": "syngo MR E11", "SpacingBetweenSlices": 3.2999999356958, "SpecificCharacterSet": "ISO_IR 100", "StudyID": "2", "StudyTime": "150340.151000", "TransmitCoilName": "Body", "VariableFlipAngleFlag": "N", "WindowCenterWidthExplanation": "Algo1"}, "slices": {}}, "time": {"samples": {"AcquisitionNumber": [1, 2, 3, 4, 5, 6, 7, 8, 9, 10, 11, 12, 13, 14, 15, 16, 17, 18, 19, 20, 21, 22, 23, 24, 25, 26, 27, 28, 29, 30, 31, 32, 33, 34, 35, 36, 37, 38, 39, 40, 41, 42, 43, 44, 45, 46, 47, 48, 49, 50, 51, 52, 53, 54, 55, 56, 57, 58, 59, 60, 61, 62, 63, 64, 65, 66, 67, 68, 69, 70, 71, 72, 73, 74, 75, 76, 77, 78, 79, 80, 81, 82, 83, 84, 85, 86, 87, 88, 89, 90, 91, 92, 93, 94, 95, 96, 97, 98, 99, 100, 101, 102, 103, 104, 105, 106, 107, 108, 109, 110, 111, 112, 113, 114, 115, 116, 117, 118, 119, 120, 121, 122, 123, 124, 125, 126, 127, 128, 129, 130, 131, 132, 133, 134, 135, 136, 137, 138, 139, 140, 141, 142, 143, 144, 145, 146, 147, 148, 149, 150, 151, 152, 153, 154, 155, 156, 157, 158, 159, 160, 161, 162, 163, 164, 165, 166, 167, 168, 169, 170, 171, 172, 173, 174, 175, 176, 177, 178, 179, 180, 181, 182, 183, 184, 185, 186, 187, 188, 189, 190, 191, 192, 193, 194, 195, 196, 197, 198, 199, 200, 201, 202, 203, 204, 205, 206, 207, 208, 209, 210, 211, 212, 213, 214, 215, 216, 217, 218, 219, 220, 221, 222, 223, 224, 225, 226, 227, 228, 229, 230, 231, 232, 233, 234, 235, 236, 237, 238, 239, 240, 241, 242, 243, 244, 245, 246, 247, 248, 249, 250, 251, 252, 253, 254, 255, 256, 257, 258, 259, 260, 261, 262, 263, 264, 265, 266, 267, 268, 269, 270, 271, 272, 273, 274, 275, 276, 277, 278, 279, 280, 281, 282, 283, 284, 285, 286, 287, 288, 289, 290, 291, 292, 293, 294, 295, 296, 297, 298, 299, 300, 301, 302, 303, 304, 305, 306, 307, 308, 309, 310, 311, 312, 313, 314, 315, 316, 317, 318, 319, 320, 321, 322, 323, 324, 325, 326, 327, 328, 329, 330, 331, 332, 333, 334, 335, 336, 337, 338, 339, 340, 341, 342, 343, 344, 345, 346, 347, 348, 349, 350, 351, 352, 353, 354, 355, 356, 357, 358, 359, 360, 361, 362, 363, 364, 365, 366, 367, 368, 369, 370, 371, 372, 373, 374, 375, 376, 377, 378, 379, 380, 381, 382, 383, 384, 385, 386, 387, 388, 389, 390, 391, 392, 393, 394, 395, 396, 397, 398, 399, 400, 401, 402, 403, 404, 405, 406, 407, 408, 409, 410, 411, 412, 413, 414, 415, 416, 417, 418, 419, 420, 421, 422, 423, 424, 425, 426, 427, 428, 429, 430, 431, 432, 433, 434, 435, 436, 437, 438, 439, 440, 441, 442, 443, 444, 445, 446, 447, 448, 449, 450, 451, 452, 453, 454, 455, 456, 457, 458, 459, 460, 461, 462, 463, 464, 465, 466, 467, 468, 469, 470, 471, 472, 473, 474, 475, 476, 477, 478, 479, 480, 481, 482, 483, 484, 485, 486, 487, 488, 489, 490, 491, 492, 493, 494, 495, 496, 497, 498, 499, 500, 501, 502, 503, 504, 505, 506, 507, 508, 509, 510], "AcquisitionTime": ["153600.715000", "153601.325000", "153601.935000", "153602.545000", "153603.155000", "153603.765000", "153604.375000", "153604.985000", "153605.595000", "153606.205000", "153606.815000", "153607.425000", "153608.035000", "153608.645000", "153609.255000", "153609.865000", "153610.475000", "153611.085000", "153611.695000", "153612.305000", "153612.915000", "153613.525000", "153614.135000", "153614.745000", "153615.355000", "153615.965000", "153616.575000", "153617.185000", "153617.795000", "153618.405000", "153619.015000", "153619.625000", "153620.235000", "153620.845000", "153621.455000", "153622.065000", "153622.675000", "153623.285000", "153623.895000", "153624.505000", "153625.115000", "153625.725000", "153626.335000", "153626.945000", "153627.555000", "153628.165000", "153628.775000", "153629.385000", "153629.995000", "153630.605000", "153631.215000", "153631.825000", "153632.435000", "153633.045000", "153633.655000", "153634.265000", "153634.875000", "153635.485000", "153636.095000", "153636.705000", "153637.315000", "153637.925000", "153638.535000", "153639.145000", "153639.755000", "153640.365000", "153640.975000", "153641.585000", "153642.195000", "153642.805000", "153643.415000", "153644.025000", "153644.635000", "153645.245000", "153645.855000", "153646.465000", "153647.075000", "153647.685000", "153648.295000", "153648.905000", "153649.515000", "153650.125000", "153650.735000", "153651.345000", "153651.955000", "153652.565000", "153653.175000", "153653.785000", "153654.395000", "153655.005000", "153655.615000", "153656.225000", "153656.835000", "153657.445000", "153658.055000", "153658.665000", "153659.275000", "153659.885000", "153700.495000", "153701.105000", "153701.715000", "153702.325000", "153702.935000", "153703.545000", "153704.155000", "153704.765000", "153705.375000", "153705.985000", "153706.595000", "153707.205000", "153707.815000", "153708.425000", "153709.035000", "153709.645000", "153710.255000", "153710.865000", "153711.475000", "153712.085000", "153712.695000", "153713.305000", "153713.915000", "153714.525000", "153715.135000", "153715.745000", "153716.355000", "153716.965000", "153717.575000", "153718.185000", "153718.795000", "153719.405000", "153720.015000", "153720.625000", "153721.235000", "153721.845000", "153722.455000", "153723.065000", "153723.675000", "153724.285000", "153724.895000", "153725.505000", "153726.115000", "153726.725000", "153727.335000", "153727.945000", "153728.555000", "153729.165000", "153729.775000", "153730.385000", "153730.995000", "153731.605000", "153732.215000", "153732.825000", "153733.435000", "153734.045000", "153734.655000", "153735.265000", "153735.875000", "153736.485000", "153737.095000", "153737.705000", "153738.315000", "153738.925000", "153739.535000", "153740.145000", "153740.755000", "153741.365000", "153741.975000", "153742.585000", "153743.195000", "153743.805000", "153744.415000", "153745.025000", "153745.635000", "153746.245000", "153746.855000", "153747.465000", "153748.075000", "153748.685000", "153749.295000", "153749.905000", "153750.515000", "153751.125000", "153751.735000", "153752.345000", "153752.955000", "153753.565000", "153754.175000", "153754.785000", "153755.395000", "153756.005000", "153756.615000", "153757.225000", "153757.835000", "153758.445000", "153759.055000", "153759.665000", "153800.275000", "153800.885000", "153801.495000", "153802.105000", "153802.715000", "153803.325000", "153803.935000", "153804.545000", "153805.155000", "153805.765000", "153806.375000", "153806.985000", "153807.595000", "153808.205000", "153808.815000", "153809.425000", "153810.035000", "153810.645000", "153811.255000", "153811.865000", "153812.475000", "153813.085000", "153813.695000", "153814.305000", "153814.915000", "153815.525000", "153816.135000", "153816.745000", "153817.355000", "153817.965000", "153818.575000", "153819.185000", "153819.795000", "153820.405000", "153821.015000", "153821.625000", "153822.235000", "153822.845000", "153823.455000", "153824.065000", "153824.675000", "153825.285000", "153825.895000", "153826.505000", "153827.115000", "153827.725000", "153828.335000", "153828.945000", "153829.555000", "153830.165000", "153830.775000", "153831.385000", "153831.995000", "153832.605000", "153833.215000", "153833.825000", "153834.435000", "153835.045000", "153835.655000", "153836.265000", "153836.875000", "153837.485000", "153838.095000", "153838.705000", "153839.315000", "153839.925000", "153840.535000", "153841.145000", "153841.755000", "153842.365000", "153842.975000", "153843.585000", "153844.195000", "153844.805000", "153845.415000", "153846.025000", "153846.635000", "153847.245000", "153847.855000", "153848.465000", "153849.075000", "153849.685000", "153850.295000", "153850.905000", "153851.515000", "153852.125000", "153852.735000", "153853.345000", "153853.955000", "153854.565000", "153855.175000", "153855.785000", "153856.395000", "153857.005000", "153857.615000", "153858.225000", "153858.835000", "153859.445000", "153900.055000", "153900.665000", "153901.275000", "153901.885000", "153902.495000", "153903.105000", "153903.715000", "153904.325000", "153904.935000", "153905.545000", "153906.155000", "153906.765000", "153907.375000", "153907.985000", "153908.595000", "153909.205000", "153909.815000", "153910.425000", "153911.035000", "153911.645000", "153912.255000", "153912.865000", "153913.475000", "153914.085000", "153914.695000", "153915.305000", "153915.915000", "153916.525000", "153917.135000", "153917.745000", "153918.355000", "153918.965000", "153919.575000", "153920.185000", "153920.795000", "153921.405000", "153922.015000", "153922.625000", "153923.235000", "153923.845000", "153924.455000", "153925.065000", "153925.675000", "153926.285000", "153926.895000", "153927.505000", "153928.115000", "153928.725000", "153929.335000", "153929.945000", "153930.555000", "153931.165000", "153931.775000", "153932.385000", "153932.995000", "153933.605000", "153934.215000", "153934.825000", "153935.435000", "153936.045000", "153936.655000", "153937.265000", "153937.875000", "153938.485000", "153939.095000", "153939.705000", "153940.315000", "153940.925000", "153941.535000", "153942.145000", "153942.755000", "153943.365000", "153943.975000", "153944.585000", "153945.195000", "153945.805000", "153946.415000", "153947.025000", "153947.635000", "153948.245000", "153948.855000", "153949.465000", "153950.075000", "153950.685000", "153951.295000", "153951.905000", "153952.515000", "153953.125000", "153953.735000", "153954.345000", "153954.955000", "153955.565000", "153956.175000", "153956.785000", "153957.395000", "153958.005000", "153958.615000", "153959.225000", "153959.835000", "154000.445000", "154001.055000", "154001.665000", "154002.275000", "154002.885000", "154003.495000", "154004.105000", "154004.715000", "154005.325000", "154005.935000", "154006.545000", "154007.155000", "154007.765000", "154008.375000", "154008.985000", "154009.595000", "154010.205000", "154010.815000", "154011.425000", "154012.035000", "154012.645000", "154013.255000", "154013.865000", "154014.475000", "154015.085000", "154015.695000", "154016.305000", "154016.915000", "154017.525000", "154018.135000", "154018.745000", "154019.355000", "154019.965000", "154020.575000", "154021.185000", "154021.795000", "154022.405000", "154023.015000", "154023.625000", "154024.235000", "154024.845000", "154025.455000", "154026.065000", "154026.675000", "154027.285000", "154027.895000", "154028.505000", "154029.115000", "154029.725000", "154030.335000", "154030.945000", "154031.555000", "154032.165000", "154032.775000", "154033.385000", "154033.995000", "154034.605000", "154035.215000", "154035.825000", "154036.435000", "154037.045000", "154037.655000", "154038.265000", "154038.875000", "154039.485000", "154040.095000", "154040.705000", "154041.315000", "154041.925000", "154042.535000", "154043.145000", "154043.755000", "154044.365000", "154044.975000", "154045.585000", "154046.195000", "154046.805000", "154047.415000", "154048.025000", "154048.635000", "154049.245000", "154049.855000", "154050.465000", "154051.075000", "154051.685000", "154052.295000", "154052.905000", "154053.515000", "154054.125000", "154054.735000", "154055.345000", "154055.955000", "154056.565000", "154057.175000", "154057.785000", "154058.395000", "154059.005000", "154059.615000", "154100.225000", "154100.835000", "154101.445000", "154102.055000", "154102.665000", "154103.275000", "154103.885000", "154104.495000", "154105.105000", "154105.715000", "154106.325000", "154106.935000", "154107.545000", "154108.155000", "154108.765000", "154109.375000", "154109.985000", "154110.595000", "154111.205000"], "ContentTime": ["153628.590000", "153628.593000", "153628.596000", "153628.598000", "153628.601000", "153628.603000", "153628.605000", "153628.608000", "153628.610000", "153628.612000", "153628.615000", "153628.617000", "153628.620000", "153628.622000", "153628.625000", "153628.627000", "153628.630000", "153628.632000", "153628.634000", "153628.643000", "153628.646000", "153628.648000", "153628.650000", "153628.653000", "153628.655000", "153628.657000", "153628.660000", "153628.662000", "153628.669000", "153628.672000", "153628.674000", "153628.676000", "153628.679000", "153628.681000", "153628.684000", "153628.686000", "153628.688000", "153628.691000", "153628.693000", "153628.695000", "153628.698000", "153628.708000", "153628.710000", "153628.712000", "153628.715000", "153648.586000", "153648.588000", "153648.590000", "153648.593000", "153648.595000", "153648.598000", "153648.600000", "153648.603000", "153648.605000", "153648.608000", "153648.610000", "153648.612000", "153648.615000", "153648.617000", "153648.620000", "153648.622000", "153648.624000", "153648.627000", "153648.629000", "153648.631000", "153648.634000", "153648.636000", "153648.639000", "153648.641000", "153648.644000", "153648.646000", "153648.648000", "153648.651000", "153648.653000", "153648.655000", "153648.658000", "153648.660000", "153648.663000", "153708.585000", "153708.592000", "153708.594000", "153708.597000", "153708.599000", "153708.602000", "153708.604000", "153708.606000", "153708.609000", "153708.611000", "153708.613000", "153708.616000", "153708.618000", "153708.621000", "153708.623000", "153708.625000", "153708.628000", "153708.630000", "153708.633000", "153708.635000", "153708.637000", "153708.640000", "153708.642000", "153708.644000", "153708.647000", "153708.649000", "153708.652000", "153708.654000", "153708.657000", "153708.659000", "153708.661000", "153708.664000", "153708.666000", "153728.585000", "153728.588000", "153728.600000", "153728.603000", "153728.605000", "153728.608000", "153728.610000", "153728.613000", "153728.615000", "153728.617000", "153728.620000", "153728.622000", "153728.625000", "153728.627000", "153728.630000", "153728.632000", "153728.634000", "153728.637000", "153728.639000", "153728.642000", "153728.644000", "153728.646000", "153728.649000", "153728.651000", "153728.654000", "153728.656000", "153728.658000", "153728.661000", "153728.663000", "153728.669000", "153728.672000", "153728.674000", "153728.676000", "153748.585000", "153748.588000", "153748.590000", "153748.593000", "153748.595000", "153748.598000", "153748.600000", "153748.603000", "153748.605000", "153748.607000", "153748.610000", "153748.612000", "153748.614000", "153748.617000", "153748.620000", "153748.622000", "153748.624000", "153748.627000", "153748.630000", "153748.632000", "153748.635000", "153748.637000", "153748.639000", "153748.642000", "153748.644000", "153748.647000", "153748.649000", "153748.652000", "153748.654000", "153748.656000", "153748.659000", "153748.661000", "153808.585000", "153808.588000", "153808.590000", "153808.593000", "153808.595000", "153808.597000", "153808.601000", "153808.604000", "153808.606000", "153808.608000", "153808.611000", "153808.613000", "153808.615000", "153808.618000", "153808.620000", "153808.623000", "153808.625000", "153808.627000", "153808.630000", "153808.632000", "153808.635000", "153808.637000", "153808.639000", "153808.642000", "153808.644000", "153808.647000", "153808.649000", "153808.651000", "153808.654000", "153808.656000", "153808.659000", "153808.661000", "153808.664000", "153828.585000", "153828.588000", "153828.590000", "153828.593000", "153828.595000", "153828.597000", "153828.600000", "153828.602000", "153828.605000", "153828.607000", "153828.609000", "153828.612000", "153828.614000", "153828.617000", "153828.619000", "153828.621000", "153828.624000", "153828.626000", "153828.629000", "153828.631000", "153828.634000", "153828.636000", "153828.638000", "153828.641000", "153828.643000", "153828.646000", "153828.648000", "153828.650000", "153828.653000", "153828.655000", "153828.657000", "153828.660000", "153828.662000", "153848.585000", "153848.588000", "153848.591000", "153848.593000", "153848.595000", "153848.598000", "153848.600000", "153848.603000", "153848.605000", "153848.608000", "153848.610000", "153848.612000", "153848.615000", "153848.617000", "153848.620000", "153848.622000", "153848.624000", "153848.627000", "153848.629000", "153848.632000", "153848.634000", "153848.636000", "153848.639000", "153848.641000", "153848.644000", "153848.646000", "153848.649000", "153848.651000", "153848.653000", "153848.656000", "153848.658000", "153848.661000", "153848.663000", "153908.585000", "153908.590000", "153908.592000", "153908.595000", "153908.597000", "153908.600000", "153908.602000", "153908.605000", "153908.607000", "153908.609000", "153908.612000", "153908.614000", "153908.616000", "153908.619000", "153908.621000", "153908.624000", "153908.626000", "153908.628000", "153908.631000", "153908.633000", "153908.636000", "153908.638000", "153908.640000", "153908.643000", "153908.645000", "153908.647000", "153908.650000", "153908.652000", "153908.655000", "153908.657000", "153908.660000", "153908.662000", "153908.664000", "153928.585000", "153928.588000", "153928.591000", "153928.593000", "153928.595000", "153928.598000", "153928.600000", "153928.603000", "153928.605000", "153928.608000", "153928.610000", "153928.612000", "153928.615000", "153928.617000", "153928.620000", "153928.622000", "153928.625000", "153928.627000", "153928.629000", "153928.632000", "153928.634000", "153928.637000", "153928.639000", "153928.641000", "153928.644000", "153928.646000", "153928.649000", "153928.651000", "153928.653000", "153928.656000", "153928.658000", "153928.661000", "153948.585000", "153948.588000", "153948.590000", "153948.593000", "153948.595000", "153948.598000", "153948.600000", "153948.603000", "153948.605000", "153948.607000", "153948.610000", "153948.612000", "153948.615000", "153948.617000", "153948.619000", "153948.622000", "153948.624000", "153948.627000", "153948.629000", "153948.632000", "153948.634000", "153948.636000", "153948.639000", "153948.642000", "153948.644000", "153948.647000", "153948.649000", "153948.652000", "153948.654000", "153948.656000", "153948.659000", "153948.661000", "153948.663000", "154008.585000", "154008.588000", "154008.590000", "154008.593000", "154008.595000", "154008.608000", "154008.611000", "154008.613000", "154008.615000", "154008.618000", "154008.620000", "154008.623000", "154008.625000", "154008.627000", "154008.630000", "154008.632000", "154008.635000", "154008.637000", "154008.639000", "154008.642000", "154008.644000", "154008.647000", "154008.649000", "154008.651000", "154008.654000", "154008.656000", "154008.659000", "154008.661000", "154008.664000", "154008.666000", "154008.668000", "154008.671000", "154008.673000", "154028.585000", "154028.588000", "154028.591000", "154028.593000", "154028.595000", "154028.598000", "154028.600000", "154028.603000", "154028.605000", "154028.608000", "154028.610000", "154028.613000", "154028.615000", "154028.617000", "154028.620000", "154028.622000", "154028.625000", "154028.627000", "154028.629000", "154028.632000", "154028.634000", "154028.637000", "154028.639000", "154028.642000", "154028.644000", "154028.646000", "154028.649000", "154028.651000", "154028.654000", "154028.656000", "154028.658000", "154028.661000", "154028.663000", "154048.585000", "154048.588000", "154048.590000", "154048.593000", "154048.595000", "154048.598000", "154048.600000", "154048.603000", "154048.605000", "154048.608000", "154048.610000", "154048.613000", "154048.615000", "154048.617000", "154048.620000", "154048.622000", "154048.625000", "154048.627000", "154048.630000", "154048.632000", "154048.634000", "154048.637000", "154048.639000", "154048.642000", "154048.644000", "154048.646000", "154048.649000", "154048.651000", "154048.654000", "154048.656000", "154048.659000", "154048.661000", "154108.585000", "154108.588000", "154108.591000", "154108.593000", "154108.595000", "154108.598000", "154108.600000", "154108.603000", "154108.605000", "154108.608000", "154108.610000", "154108.612000", "154108.615000", "154108.617000", "154108.620000", "154108.622000", "154108.625000", "154108.627000", "154108.629000", "154108.632000", "154108.634000", "154108.637000", "154108.639000", "154108.642000", "154108.644000", "154108.646000", "154108.649000", "154108.651000", "154108.660000", "154108.662000", "154108.665000", "154108.667000", "154108.670000", "154111.735000", "154111.738000", "154111.740000", "154111.743000", "154111.745000", "154111.748000"], "InstanceCreationTime": ["153628.590000", "153628.593000", "153628.596000", "153628.598000", "153628.601000", "153628.603000", "153628.605000", "153628.608000", "153628.610000", "153628.612000", "153628.615000", "153628.617000", "153628.620000", "153628.622000", "153628.625000", "153628.627000", "153628.630000", "153628.632000", "153628.634000", "153628.643000", "153628.646000", "153628.648000", "153628.650000", "153628.653000", "153628.655000", "153628.657000", "153628.660000", "153628.662000", "153628.669000", "153628.672000", "153628.674000", "153628.676000", "153628.679000", "153628.681000", "153628.684000", "153628.686000", "153628.688000", "153628.691000", "153628.693000", "153628.695000", "153628.698000", "153628.708000", "153628.710000", "153628.712000", "153628.715000", "153648.586000", "153648.588000", "153648.590000", "153648.593000", "153648.595000", "153648.598000", "153648.600000", "153648.603000", "153648.605000", "153648.608000", "153648.610000", "153648.612000", "153648.615000", "153648.617000", "153648.620000", "153648.622000", "153648.624000", "153648.627000", "153648.629000", "153648.631000", "153648.634000", "153648.636000", "153648.639000", "153648.641000", "153648.644000", "153648.646000", "153648.648000", "153648.651000", "153648.653000", "153648.655000", "153648.658000", "153648.660000", "153648.663000", "153708.585000", "153708.592000", "153708.594000", "153708.597000", "153708.599000", "153708.602000", "153708.604000", "153708.606000", "153708.609000", "153708.611000", "153708.613000", "153708.616000", "153708.618000", "153708.621000", "153708.623000", "153708.625000", "153708.628000", "153708.630000", "153708.633000", "153708.635000", "153708.637000", "153708.640000", "153708.642000", "153708.644000", "153708.647000", "153708.649000", "153708.652000", "153708.654000", "153708.657000", "153708.659000", "153708.661000", "153708.664000", "153708.666000", "153728.585000", "153728.588000", "153728.600000", "153728.603000", "153728.605000", "153728.608000", "153728.610000", "153728.613000", "153728.615000", "153728.617000", "153728.620000", "153728.622000", "153728.625000", "153728.627000", "153728.630000", "153728.632000", "153728.634000", "153728.637000", "153728.639000", "153728.642000", "153728.644000", "153728.646000", "153728.649000", "153728.651000", "153728.654000", "153728.656000", "153728.658000", "153728.661000", "153728.663000", "153728.669000", "153728.672000", "153728.674000", "153728.676000", "153748.585000", "153748.588000", "153748.590000", "153748.593000", "153748.595000", "153748.598000", "153748.600000", "153748.603000", "153748.605000", "153748.607000", "153748.610000", "153748.612000", "153748.614000", "153748.617000", "153748.620000", "153748.622000", "153748.624000", "153748.627000", "153748.630000", "153748.632000", "153748.635000", "153748.637000", "153748.639000", "153748.642000", "153748.644000", "153748.647000", "153748.649000", "153748.652000", "153748.654000", "153748.656000", "153748.659000", "153748.661000", "153808.585000", "153808.588000", "153808.590000", "153808.593000", "153808.595000", "153808.597000", "153808.601000", "153808.604000", "153808.606000", "153808.608000", "153808.611000", "153808.613000", "153808.615000", "153808.618000", "153808.620000", "153808.623000", "153808.625000", "153808.627000", "153808.630000", "153808.632000", "153808.635000", "153808.637000", "153808.639000", "153808.642000", "153808.644000", "153808.647000", "153808.649000", "153808.651000", "153808.654000", "153808.656000", "153808.659000", "153808.661000", "153808.664000", "153828.585000", "153828.588000", "153828.590000", "153828.593000", "153828.595000", "153828.597000", "153828.600000", "153828.602000", "153828.605000", "153828.607000", "153828.609000", "153828.612000", "153828.614000", "153828.617000", "153828.619000", "153828.621000", "153828.624000", "153828.626000", "153828.629000", "153828.631000", "153828.634000", "153828.636000", "153828.638000", "153828.641000", "153828.643000", "153828.646000", "153828.648000", "153828.650000", "153828.653000", "153828.655000", "153828.657000", "153828.660000", "153828.662000", "153848.585000", "153848.588000", "153848.591000", "153848.593000", "153848.595000", "153848.598000", "153848.600000", "153848.603000", "153848.605000", "153848.608000", "153848.610000", "153848.612000", "153848.615000", "153848.617000", "153848.620000", "153848.622000", "153848.624000", "153848.627000", "153848.629000", "153848.632000", "153848.634000", "153848.636000", "153848.639000", "153848.641000", "153848.644000", "153848.646000", "153848.649000", "153848.651000", "153848.653000", "153848.656000", "153848.658000", "153848.661000", "153848.663000", "153908.585000", "153908.590000", "153908.592000", "153908.595000", "153908.597000", "153908.600000", "153908.602000", "153908.605000", "153908.607000", "153908.609000", "153908.612000", "153908.614000", "153908.616000", "153908.619000", "153908.621000", "153908.624000", "153908.626000", "153908.628000", "153908.631000", "153908.633000", "153908.636000", "153908.638000", "153908.640000", "153908.643000", "153908.645000", "153908.647000", "153908.650000", "153908.652000", "153908.655000", "153908.657000", "153908.660000", "153908.662000", "153908.664000", "153928.585000", "153928.588000", "153928.591000", "153928.593000", "153928.595000", "153928.598000", "153928.600000", "153928.603000", "153928.605000", "153928.608000", "153928.610000", "153928.612000", "153928.615000", "153928.617000", "153928.620000", "153928.622000", "153928.625000", "153928.627000", "153928.629000", "153928.632000", "153928.634000", "