{
    "AcquisitionMatrixPE": 64,
    "AcquisitionNumber": 1,
    "AcquisitionTime": "14:32:22.740000",
    "BandwidthPerPixelPhaseEncode": 28.935,
    "BaseResolution": 64,
    "BodyPartExamined": "BRAIN",
    "CoilString": "HC2_4_6_7;SC",
    "ConsistencyInfo": "N4_VE11E_LATEST_20181129",
    "ConversionSoftware": "dcm2niix",
    "ConversionSoftwareVersion": "v1.0.20190902",
    "DerivedVendorReportedEchoSpacing": 0.000540003,
    "DeviceSerialNumber": "166182",
    "DwellTime": 3.4e-06,
    "EchoTime": 0.032,
    "EchoTrainLength": 64,
    "EffectiveEchoSpacing": 0.000540003,
    "FlipAngle": 40,
    "ImageOrientationPatientDICOM": [
        0.998415,
        0.0129807,
        -0.0547562,
        -0.0156844,
        0.998664,
        -0.049239
    ],
    "ImageType": [
        "ORIGINAL",
        "PRIMARY",
        "M",
        "ND",
        "NORM",
        "MOSAIC"
    ],
    "ImagingFrequency": 123.255,
    "InPlanePhaseEncodingDirectionDICOM": "COL",
    "InstitutionAddress": "PEARSE_STREET_._City_District_IE_D2",
    "InstitutionName": "TCIN",
    "InstitutionalDepartmentName": "MRI",
    "MRAcquisitionType": "2D",
    "MagneticFieldStrength": 3,
    "Manufacturer": "Siemens",
    "ManufacturersModelName": "Prisma",
    "Modality": "MR",
    "MultibandAccelerationFactor": 4,
    "PartialFourier": 1,
    "PatientPosition": "HFS",
    "PercentPhaseFOV": 100,
    "PhaseEncodingDirection": "j-",
    "PhaseEncodingSteps": 64,
    "PhaseResolution": 1,
    "PixelBandwidth": 2300,
    "ProcedureStepDescription": "Rhodri_Head_BOLD",
    "ProtocolName": "cmrr_mbep2d_Pictures_AP_RDS",
    "PulseSequenceDetails": "%SiemensSeq%_ep2d_bold",
    "ReceiveCoilActiveElements": "HC2,4,6,7;SC",
    "ReceiveCoilName": "SpecialPurpose_4",
    "ReconMatrixPE": 64,
    "RefLinesPE": 12,
    "RepetitionTime": 0.61,
    "SAR": 0.283541,
    "ScanOptions": "FS",
    "ScanningSequence": "EP",
    "SequenceName": "_epfid2d1_64",
    "SequenceVariant": "SK",
    "SeriesDescription": "cmrr_mbep2d_Pictures_AP_RDS",
    "SeriesNumber": 9,
    "ShimSetting": [
        -3604,
        -7422,
        3825,
        1112,
        -116,
        8,
        56,
        369
    ],
    "SliceThickness": 3,
    "SliceTiming": [
        0.2625,
        0,
        0.3275,
        0.065,
        0.3925,
        0.1325,
        0.46,
        0.1975,
        0.525,
        0.2625,
        0,
        0.3275,
        0.065,
        0.3925,
        0.1325,
        0.46,
        0.1975,
        0.525,
        0.2625,
        0,
        0.3275,
        0.065,
        0.3925,
        0.1325,
        0.46,
        0.1975,
        0.525,
        0.2625,
        0,
        0.3275,
        0.065,
        0.3925,
        0.1325,
        0.46,
        0.1975,
        0.525
    ],
    "SoftwareVersions": "syngo_MR_E11",
    "SpacingBetweenSlices": 3.3,
    "StationName": "AWP166182",
    "TaskName": "pictures",
    "TotalReadoutTime": 0.0340202,
    "TxRefAmp": 236.321,
    "dcmmeta_affine": [
        [
            -2.995246171951294,
            -0.047053128480911255,
            -0.17834483087062836,
            100.9753189086914
        ],
        [
            -0.03894216939806938,
            2.9959917068481445,
            -0.1650654375553131,
            -98.58033752441406
        ],
        [
            -0.1642686277627945,
            0.14771711826324463,
            3.2910404205322266,
            -80.44546508789062
        ],
        [
            0.0,
            0.0,
            0.0,
            1.0
        ]
    ],
    "dcmmeta_reorient_transform": [
        [
            0.0,
            -1.0,
            0.0,
            63.0
        ],
        [
            1.0,
            0.0,
            0.0,
            0.0
        ],
        [
            0.0,
            0.0,
            1.0,
            0.0
        ],
        [
            0.0,
            0.0,
            0.0,
            1.0
        ]
    ],
    "dcmmeta_shape": [
        64,
        64,
        36,
        102
    ],
    "dcmmeta_slice_dim": 2,
    "dcmmeta_version": 0.6,
    "global": {
        "const": {
            "AcquisitionMatrix": [
                64,
                0,
                0,
                64
            ],
            "AngioFlag": "N",
            "BitsAllocated": 16,
            "BitsStored": 12,
            "BodyPartExamined": "BRAIN",
            "Columns": 384,
            "EchoNumbers": 1,
            "EchoTime": 32.0,
            "EchoTrainLength": 64,
            "FlipAngle": 40.0,
            "HighBit": 11,
            "ImageOrientationPatient": [
                0.9984153736952,
                0.01298072321326,
                -0.0547562087251,
                -0.0156843760969,
                0.99866386615972,
                -0.0492390370883
            ],
            "ImagePositionPatient": [
                -569.72185163278,
                -575.75653360472,
                -21.221571663451
            ],
            "ImageType": [
                "ORIGINAL",
                "PRIMARY",
                "M",
                "ND",
                "NORM",
                "MOSAIC"
            ],
            "ImagedNucleus": "1H",
            "ImagingFrequency": 123.254731,
            "InPlanePhaseEncodingDirection": "COL",
            "MRAcquisitionType": "2D",
            "MagneticFieldStrength": 3.0,
            "Manufacturer": "SIEMENS",
            "ManufacturerModelName": "Prisma",
            "Modality": "MR",
            "NumberOfAverages": 1.0,
            "NumberOfPhaseEncodingSteps": 64,
            "PercentPhaseFieldOfView": 100.0,
            "PercentSampling": 100.0,
            "PerformedProcedureStepStartTime": "141529.616000",
            "PhotometricInterpretation": "MONOCHROME2",
            "PixelBandwidth": 2300.0,
            "PixelRepresentation": 0,
            "PixelSpacing": [
                3.0,
                3.0
            ],
            "ProtocolName": "cmrr_mbep2d_Pictures_AP_RDS",
            "RepetitionTime": 610.0,
            "Rows": 384,
            "SAR": 0.2835411067526,
            "SamplesPerPixel": 1,
            "ScanOptions": "FS",
            "ScanningSequence": "EP",
            "SequenceName": "*epfid2d1_64",
            "SequenceVariant": "SK",
            "SeriesDescription": "cmrr_mbep2d_Pictures_AP_RDS",
            "SeriesNumber": 9,
            "SeriesTime": "143237.982000",
            "SliceLocation": -80.753181579905,
            "SliceThickness": 3.0,
            "SmallestImagePixelValue": 0,
            "SoftwareVersions": "syngo MR E11",
            "SpacingBetweenSlices": 3.3000000247394,
            "SpecificCharacterSet": "ISO_IR 100",
            "StudyID": "1",
            "StudyTime": "141529.520000",
            "TransmitCoilName": "Body",
            "VariableFlipAngleFlag": "N",
            "WindowCenterWidthExplanation": "Algo1"
        },
        "slices": {}
    },
    "time": {
        "samples": {
            "AcquisitionNumber": [
                1,
                2,
                3,
                4,
                5,
                6,
                7,
                8,
                9,
                10,
                11,
                12,
                13,
                14,
                15,
                16,
                17,
                18,
                19,
                20,
                21,
                22,
                23,
                24,
                25,
                26,
                27,
                28,
                29,
                30,
                31,
                32,
                33,
                34,
                35,
                36,
                37,
                38,
                39,
                40,
                41,
                42,
                43,
                44,
                45,
                46,
                47,
                48,
                49,
                50,
                51,
                52,
                53,
                54,
                55,
                56,
                57,
                58,
                59,
                60,
                61,
                62,
                63,
                64,
                65,
                66,
                67,
                68,
                69,
                70,
                71,
                72,
                73,
                74,
                75,
                76,
                77,
                78,
                79,
                80,
                81,
                82,
                83,
                84,
                85,
                86,
                87,
                88,
                89,
                90,
                91,
                92,
                93,
                94,
                95,
                96,
                97,
                98,
                99,
                100,
                101,
                102
            ],
            "AcquisitionTime": [
                "143222.740000",
                "143223.350000",
                "143223.960000",
                "143224.570000",
                "143225.180000",
                "143225.790000",
                "143226.400000",
                "143227.010000",
                "143227.620000",
                "143228.230000",
                "143228.840000",
                "143229.450000",
                "143230.060000",
                "143230.670000",
                "143231.280000",
                "143231.890000",
                "143232.500000",
                "143233.110000",
                "143233.720000",
                "143234.330000",
                "143234.940000",
                "143235.550000",
                "143236.160000",
                "143236.770000",
                "143237.380000",
                "143237.990000",
                "143238.600000",
                "143239.210000",
                "143239.820000",
                "143240.430000",
                "143241.040000",
                "143241.650000",
                "143242.260000",
                "143242.870000",
                "143243.480000",
                "143244.090000",
                "143244.700000",
                "143245.310000",
                "143245.920000",
                "143246.530000",
                "143247.140000",
                "143247.750000",
                "143248.360000",
                "143248.970000",
                "143249.580000",
                "143250.190000",
                "143250.800000",
                "143251.410000",
                "143252.020000",
                "143252.630000",
                "143253.240000",
                "143253.850000",
                "143254.460000",
                "143255.070000",
                "143255.680000",
                "143256.290000",
                "143256.900000",
                "143257.510000",
                "143258.120000",
                "143258.730000",
                "143259.340000",
                "143259.950000",
                "143300.560000",
                "143301.170000",
                "143301.780000",
                "143302.390000",
                "143303.000000",
                "143303.610000",
                "143304.220000",
                "143304.830000",
                "143305.440000",
                "143306.050000",
                "143306.660000",
                "143307.270000",
                "143307.880000",
                "143308.490000",
                "143309.100000",
                "143309.710000",
                "143310.320000",
                "143310.930000",
                "143311.540000",
                "143312.150000",
                "143312.760000",
                "143313.370000",
                "143313.980000",
                "143314.590000",
                "143315.200000",
                "143315.810000",
                "143316.420000",
                "143317.030000",
                "143317.640000",
                "143318.250000",
                "143318.860000",
                "143319.470000",
                "143320.080000",
                "143320.690000",
                "143321.300000",
                "143321.910000",
                "143322.520000",
                "143323.130000",
                "143323.740000",
                "143324.350000"
            ],
            "ContentTime": [
                "143237.986000",
                "143237.989000",
                "143237.991000",
                "143237.994000",
                "143237.996000",
                "143238.000000",
                "143238.002000",
                "143238.004000",
                "143238.007000",
                "143238.016000",
                "143238.019000",
                "143238.021000",
                "143238.024000",
                "143238.026000",
                "143238.033000",
                "143238.036000",
                "143238.038000",
                "143238.041000",
                "143238.043000",
                "143238.046000",
                "143238.051000",
                "143238.054000",
                "143238.056000",
                "143238.059000",
                "143257.981000",
                "143257.984000",
                "143257.986000",
                "143257.988000",
                "143257.991000",
                "143257.993000",
                "143257.996000",
                "143257.998000",
                "143258.001000",
                "143258.004000",
                "143258.006000",
                "143258.008000",
                "143258.011000",
                "143258.013000",
                "143258.016000",
                "143258.018000",
                "143258.020000",
                "143258.023000",
                "143258.025000",
                "143258.027000",
                "143258.030000",
                "143258.032000",
                "143258.034000",
                "143258.037000",
                "143258.039000",
                "143258.042000",
                "143258.044000",
                "143258.046000",
                "143258.055000",
                "143258.057000",
                "143258.060000",
                "143258.062000",
                "143258.065000",
                "143317.981000",
                "143317.984000",
                "143317.987000",
                "143317.989000",
                "143317.991000",
                "143317.994000",
                "143317.996000",
                "143318.006000",
                "143318.009000",
                "143318.011000",
                "143318.014000",
                "143318.016000",
                "143318.018000",
                "143318.021000",
                "143318.023000",
                "143318.025000",
                "143318.028000",
                "143318.030000",
                "143318.032000",
                "143318.035000",
                "143318.037000",
                "143318.040000",
                "143318.042000",
                "143318.044000",
                "143318.047000",
                "143318.049000",
                "143318.051000",
                "143318.054000",
                "143318.056000",
                "143318.058000",
                "143318.061000",
                "143318.063000",
                "143326.069000",
                "143326.071000",
                "143326.074000",
                "143326.076000",
                "143326.079000",
                "143326.081000",
                "143326.083000",
                "143326.086000",
                "143326.088000",
                "143326.091000",
                "143326.093000",
                "143326.099000",
                "143326.102000"
            ],
            "InstanceCreationTime": [
                "143237.986000",
                "143237.989000",
                "143237.991000",
                "143237.994000",
                "143237.996000",
                "143238.000000",
                "143238.002000",
                "143238.004000",
                "143238.007000",
                "143238.016000",
                "143238.019000",
                "143238.021000",
                "143238.024000",
                "143238.026000",
                "143238.033000",
                "143238.036000",
                "143238.038000",
                "143238.041000",
                "143238.043000",
                "143238.046000",
                "143238.051000",
                "143238.054000",
                "143238.056000",
                "143238.059000",
                "143257.981000",
                "143257.984000",
                "143257.986000",
                "143257.988000",
                "143257.991000",
                "143257.993000",
                "143257.996000",
                "143257.998000",
                "143258.001000",
                "143258.004000",
                "143258.006000",
                "143258.008000",
                "143258.011000",
                "143258.013000",
                "143258.016000",
                "143258.018000",
                "143258.020000",
                "143258.023000",
                "143258.025000",
                "143258.027000",
                "143258.030000",
                "143258.032000",
                "143258.034000",
                "143258.037000",
                "143258.039000",
                "143258.042000",
                "143258.044000",
                "143258.046000",
                "143258.055000",
                "143258.057000",
                "143258.060000",
                "143258.062000",
                "143258.065000",
                "143317.981000",
                "143317.984000",
                "143317.987000",
                "143317.989000",
                "143317.991000",
                "143317.994000",
                "143317.996000",
                "143318.006000",
                "143318.009000",
                "143318.011000",
                "143318.014000",
                "143318.016000",
                "143318.018000",
                "143318.021000",
                "143318.023000",
                "143318.025000",
                "143318.028000",
                "143318.030000",
                "143318.032000",
                "143318.035000",
                "143318.037000",
                "143318.040000",
                "143318.042000",
                "143318.044000",
                "143318.047000",
                "143318.049000",
                "143318.051000",
                "143318.054000",
                "143318.056000",
                "143318.058000",
                "143318.061000",
                "143318.063000",
                "143326.069000",
                "143326.071000",
                "143326.074000",
                "143326.076000",
                "143326.079000",
                "143326.081000",
                "143326.083000",
                "143326.086000",
                "143326.088000",
                "143326.091000",
                "143326.093000",
                "143326.099000",
                "143326.102000"
            ],
            "InstanceNumber": [
                1,
                2,
                3,
                4,
                5,
                6,
                7,
                8,
                9,
                10,
                11,
                12,
                13,
                14,
                15,
                16,
                17,
                18,
                19,
                20,
                21,
                22,
                23,
                24,
                25,
                26,
                27,
                28,
                29,
                30,
                31,
                32,
                33,
                34,
                35,
                36,
                37,
                38,
                39,
                40,
                41,
                42,
                43,
                44,
                45,
                46,
                47,
                48,
                49,
                50,
                51,
                52,
                53,
                54,
                55,
                56,
                57,
                58,
                59,
                60,
                61,
                62,
                63,
                64,
                65,
                66,
                67,
                68,
                69,
                70,
                71,
                72,
                73,
                74,
                75,
                76,
                77,
                78,
                79,
                80,
                81,
                82,
                83,
                84,
                85,
                86,
                87,
                88,
                89,
                90,
                91,
                92,
                93,
                94,
                95,
                96,
                97,
                98,
                99,
                100,
                101,
                102
            ],
            "LargestImagePixelValue": [
                546,
                574,
                538,
                529,
                523,
                528,
                519,
                528,
                525,
                524,
                523,
                526,
                530,
                525,
                529,
                556,
                554,
                523,
                531,
                544,
                533,
                525,
                518,
                525,
                531,
                581,
                537,
                531,
                515,
                631,
                579,
                585,
                526,
                550,
                533,
                522,
                526,
                529,
                527,
                528,
                531,
                539,
                621,
                599,
                536,
                529,
                544,
                542,
                550,
                547,
                525,
                570,
                531,
                512,
                542,
                503,
                574,
                573,
                502,
                562,
                539,
                631,
                539,
                539,
                522,
                529,
                508,
                512,
                529,
                563,
                507,
                558,
                576,
                533,
                569,
                521,
                535,
                619,
                538,
                523,
                595,
                567,
                616,
                485,
                556,
                612,
                574,
                560,
                532,
                564,
                555,
                524,
                568,
                531,
                632,
                522,
                540,
                550,
                540,
                513,
                510,
                565
            ],
            "WindowCenter": [
                309.0,
                310.0,
                308.0,
                307.0,
                305.0,
                305.0,
                304.0,
                304.0,
                304.0,
                304.0,
                304.0,
                304.0,
                305.0,
                305.0,
                305.0,
                306.0,
                308.0,
                305.0,
                305.0,
                305.0,
                305.0,
                306.0,
                305.0,
                301.0,
                302.0,
                306.0,
                304.0,
                304.0,
                304.0,
                305.0,
                308.0,
                307.0,
                303.0,
                308.0,
                306.0,
                305.0,
                306.0,
                306.0,
                307.0,
                307.0,
                306.0,
                307.0,
                304.0,
                304.0,
                306.0,
                304.0,
                302.0,
                305.0,
                307.0,
                301.0,
                306.0,
                306.0,
                308.0,
                302.0,
                303.0,
                303.0,
                308.0,
                305.0,
                290.0,
                306.0,
                309.0,
                307.0,
                304.0,
                306.0,
                303.0,
                305.0,
                301.0,
                306.0,
                305.0,
                306.0,
                299.0,
                296.0,
                294.0,
                298.0,
                304.0,
                302.0,
                305.0,
                303.0,
                297.0,
                298.0,
                303.0,
                297.0,
                309.0,
                294.0,
                305.0,
                294.0,
                311.0,
                306.0,
                306.0,
                305.0,
                306.0,
                299.0,
                300.0,
                293.0,
                305.0,
                299.0,
                303.0,
                300.0,
                302.0,
                303.0,
                304.0,
                305.0
            ],
            "WindowWidth": [
                669.0,
                672.0,
                668.0,
                665.0,
                661.0,
                661.0,
                659.0,
                659.0,
                659.0,
                660.0,
                660.0,
                660.0,
                662.0,
                662.0,
                661.0,
                662.0,
                668.0,
                661.0,
                661.0,
                662.0,
                661.0,
                663.0,
                661.0,
                654.0,
                655.0,
                665.0,
                659.0,
                660.0,
                659.0,
                660.0,
                667.0,
                664.0,
                658.0,
                666.0,
                663.0,
                662.0,
                664.0,
                663.0,
                665.0,
                665.0,
                662.0,
                664.0,
                659.0,
                659.0,
                664.0,
                660.0,
                656.0,
                661.0,
                664.0,
                655.0,
                663.0,
                663.0,
                667.0,
                656.0,
                657.0,
                657.0,
                667.0,
                662.0,
                633.0,
                664.0,
                668.0,
                664.0,
                660.0,
                663.0,
                659.0,
                661.0,
                654.0,
                664.0,
                661.0,
                663.0,
                650.0,
                644.0,
                641.0,
                647.0,
                658.0,
                655.0,
                661.0,
                657.0,
                645.0,
                648.0,
                657.0,
                647.0,
                668.0,
                639.0,
                661.0,
                642.0,
                673.0,
                662.0,
                663.0,
                661.0,
                664.0,
                648.0,
                653.0,
                639.0,
                661.0,
                649.0,
                657.0,
                652.0,
                656.0,
                657.0,
                659.0,
                662.0
            ]
        },
        "slices": {}
    },
    "EventTimestamp": "14-35-44"
}