{"AcquisitionMatrixPE": 64, "AcquisitionNumber": 1, "AcquisitionTime": "10:28:33.700000", "BandwidthPerPixelPhaseEncode": 28.935, "BaseResolution": 64, "BodyPartExamined": "BRAIN", "CoilCombinationMethod": "Sum of Squares", "ConsistencyInfo": "N4_VE11E_LATEST_20181129", "ConversionSoftware": "dcm2niix", "ConversionSoftwareVersion": "v1.0.20230411", "DerivedVendorReportedEchoSpacing": 0.000540003, "DeviceSerialNumber": "166182", "DwellTime": 3.4e-06, "EchoTime": 0.032, "EchoTrainLength": 64, "EffectiveEchoSpacing": 0.000540003, "FlipAngle": 40, "HeudiconvVersion": "0.13.1", "ImageOrientationPatientDICOM": [0.999439, -0.015025, -0.0299265, 0.0158749, 0.999471, 0.0283675], "ImageOrientationText": "Tra>Sag(-1.7)>Cor(1.7)", "ImageType": ["ORIGINAL", "PRIMARY", "M", "ND", "NORM", "MOSAIC"], "ImagingFrequency": 123.255438, "InPlanePhaseEncodingDirectionDICOM": "COL", "InstitutionAddress": "PEARSE STREET .,City,District,IE,D2", "InstitutionName": "TCIN", "InstitutionalDepartmentName": "MRI", "MRAcquisitionType": "2D", "MagneticFieldStrength": 3, "Manufacturer": "Siemens", "ManufacturersModelName": "Prisma", "Modality": "MR", "MultibandAccelerationFactor": 4, "NonlinearGradientCorrection": false, "PartialFourier": 1, "PatientPosition": "HFS", "PercentPhaseFOV": 100, "PercentSampling": 100, "PhaseEncodingDirection": "j-", "PhaseEncodingSteps": 64, "PhaseResolution": 1, "PixelBandwidth": 2300, "ProcedureStepDescription": "Rhodri^Head BOLD", "ProtocolName": "cmrr_mbep2d_Pictures_AP_RDS", "PulseSequenceDetails": "%SiemensSeq%\\ep2d_bold", "ReceiveCoilActiveElements": "HC2,4,6,7;SC", "ReceiveCoilName": "SpecialPurpose_4", "ReconMatrixPE": 64, "RefLinesPE": 12, "RepetitionTime": 0.61, "SAR": 0.287035, "ScanOptions": "FS", "ScanningSequence": "EP", "SequenceName": "*epfid2d1_64", "SequenceVariant": "SK", "SeriesDescription": "cmrr_mbep2d_Pictures_AP_RDS", "SeriesNumber": 8, "ShimSetting": [-3643, -7407, 3845, 979, -32, 205, -168, -37], "SliceThickness": 3, "SliceTiming": [0.2625, 0, 0.3275, 0.065, 0.3925, 0.13, 0.46, 0.1975, 0.525, 0.2625, 0, 0.3275, 0.065, 0.3925, 0.13, 0.46, 0.1975, 0.525, 0.2625, 0, 0.3275, 0.065, 0.3925, 0.13, 0.46, 0.1975, 0.525, 0.2625, 0, 0.3275, 0.065, 0.3925, 0.13, 0.46, 0.1975, 0.525], "SoftwareVersions": "syngo MR E11", "SpacingBetweenSlices": 3.3, "StationName": "AWP166182", "TaskName": "pictures", "TotalReadoutTime": 0.0340202, "TxRefAmp": 242.524, "dcmmeta_affine": [[-2.9983174800872803, 0.04762480407953262, -0.09729858487844467, 100.9942855834961], [0.045075103640556335, 2.9984145164489746, 0.0951278880238533, -104.23328399658203], [-0.08977936953306198, -0.085102379322052, 3.2971935272216797, -90.86250305175781], [0.0, 0.0, 0.0, 1.0]], "dcmmeta_reorient_transform": [[0.0, -1.0, 0.0, 63.0], [1.0, 0.0, 0.0, 0.0], [0.0, 0.0, 1.0, 0.0], [0.0, 0.0, 0.0, 1.0]], "dcmmeta_shape": [64, 64, 36, 274], "dcmmeta_slice_dim": 2, "dcmmeta_version": 0.6, "global": {"const": {"AcquisitionMatrix": [64, 0, 0, 64], "AngioFlag": "N", "BitsAllocated": 16, "BitsStored": 12, "BodyPartExamined": "BRAIN", "Columns": 384, "EchoNumbers": 1, "EchoTime": 32.0, "EchoTrainLength": 64, "FlipAngle": 40.0, "HighBit": 11, "ImageOrientationPatient": [0.99943917050074, -0.0150250347264, -0.0299264565271, 0.0158749346342, 0.99947149718281, 0.02836745969449], "ImagePositionPatient": [-591.34542015938, -557.20112789003, -95.475636904019], "ImageType": ["ORIGINAL", "PRIMARY", "M", "ND", "NORM", "MOSAIC"], "ImagedNucleus": "1H", "ImagingFrequency": 123.255438, "InPlanePhaseEncodingDirection": "COL", "MRAcquisitionType": "2D", "MagneticFieldStrength": 3.0, "Manufacturer": "SIEMENS", "ManufacturerModelName": "Prisma", "Modality": "MR", "NumberOfAverages": 1.0, "NumberOfPhaseEncodingSteps": 64, "PercentPhaseFieldOfView": 100.0, "PercentSampling": 100.0, "PerformedProcedureStepStartTime": "100540.815000", "PhotometricInterpretation": "MONOCHROME2", "PixelBandwidth": 2300.0, "PixelRepresentation": 0, "PixelSpacing": [3.0, 3.0], "ProtocolName": "cmrr_mbep2d_Pictures_AP_RDS", "RepetitionTime": 610.0, "Rows": 384, "SAR": 0.28703493097262, "SamplesPerPixel": 1, "ScanOptions": "FS", "ScanningSequence": "EP", "SequenceName": "*epfid2d1_64", "SequenceVariant": "SK", "SeriesDescription": "cmrr_mbep2d_Pictures_AP_RDS", "SeriesNumber": 8, "SeriesTime": "102850.957000", "SliceLocation": -96.767677921368, "SliceThickness": 3.0, "SmallestImagePixelValue": 0, "SoftwareVersions": "syngo MR E11", "SpacingBetweenSlices": 3.3000001163204, "SpecificCharacterSet": "ISO_IR 100", "StudyID": "2", "StudyTime": "100540.765000", "TransmitCoilName": "Body", "VariableFlipAngleFlag": "N", "WindowCenterWidthExplanation": "Algo1"}, "slices": {}}, "time": {"samples": {"AcquisitionNumber": [1, 2, 3, 4, 5, 6, 7, 8, 9, 10, 11, 12, 13, 14, 15, 16, 17, 18, 19, 20, 21, 22, 23, 24, 25, 26, 27, 28, 29, 30, 31, 32, 33, 34, 35, 36, 37, 38, 39, 40, 41, 42, 43, 44, 45, 46, 47, 48, 49, 50, 51, 52, 53, 54, 55, 56, 57, 58, 59, 60, 61, 62, 63, 64, 65, 66, 67, 68, 69, 70, 71, 72, 73, 74, 75, 76, 77, 78, 79, 80, 81, 82, 83, 84, 85, 86, 87, 88, 89, 90, 91, 92, 93, 94, 95, 96, 97, 98, 99, 100, 101, 102, 103, 104, 105, 106, 107, 108, 109, 110, 111, 112, 113, 114, 115, 116, 117, 118, 119, 120, 121, 122, 123, 124, 125, 126, 127, 128, 129, 130, 131, 132, 133, 134, 135, 136, 137, 138, 139, 140, 141, 142, 143, 144, 145, 146, 147, 148, 149, 150, 151, 152, 153, 154, 155, 156, 157, 158, 159, 160, 161, 162, 163, 164, 165, 166, 167, 168, 169, 170, 171, 172, 173, 174, 175, 176, 177, 178, 179, 180, 181, 182, 183, 184, 185, 186, 187, 188, 189, 190, 191, 192, 193, 194, 195, 196, 197, 198, 199, 200, 201, 202, 203, 204, 205, 206, 207, 208, 209, 210, 211, 212, 213, 214, 215, 216, 217, 218, 219, 220, 221, 222, 223, 224, 225, 226, 227, 228, 229, 230, 231, 232, 233, 234, 235, 236, 237, 238, 239, 240, 241, 242, 243, 244, 245, 246, 247, 248, 249, 250, 251, 252, 253, 254, 255, 256, 257, 258, 259, 260, 261, 262, 263, 264, 265, 266, 267, 268, 269, 270, 271, 272, 273, 274], "AcquisitionTime": ["102833.700000", "102834.310000", "102834.920000", "102835.530000", "102836.140000", "102836.750000", "102837.360000", "102837.970000", "102838.580000", "102839.190000", "102839.800000", "102840.410000", "102841.020000", "102841.630000", "102842.240000", "102842.850000", "102843.460000", "102844.070000", "102844.680000", "102845.290000", "102845.900000", "102846.510000", "102847.120000", "102847.730000", "102848.340000", "102848.950000", "102849.560000", "102850.170000", "102850.780000", "102851.390000", "102852.000000", "102852.610000", "102853.220000", "102853.830000", "102854.440000", "102855.050000", "102855.660000", "102856.270000", "102856.880000", "102857.490000", "102858.100000", "102858.710000", "102859.320000", "102859.930000", "102900.540000", "102901.150000", "102901.760000", "102902.370000", "102902.980000", "102903.590000", "102904.200000", "102904.810000", "102905.420000", "102906.030000", "102906.640000", "102907.250000", "102907.860000", "102908.470000", "102909.080000", "102909.690000", "102910.300000", "102910.910000", "102911.520000", "102912.130000", "102912.740000", "102913.350000", "102913.960000", "102914.570000", "102915.180000", "102915.790000", "102916.400000", "102917.010000", "102917.620000", "102918.230000", "102918.840000", "102919.450000", "102920.060000", "102920.670000", "102921.280000", "102921.890000", "102922.500000", "102923.110000", "102923.720000", "102924.330000", "102924.940000", "102925.550000", "102926.160000", "102926.770000", "102927.380000", "102927.990000", "102928.600000", "102929.210000", "102929.820000", "102930.430000", "102931.040000", "102931.650000", "102932.260000", "102932.870000", "102933.480000", "102934.090000", "102934.700000", "102935.310000", "102935.920000", "102936.530000", "102937.140000", "102937.750000", "102938.360000", "102938.970000", "102939.580000", "102940.190000", "102940.800000", "102941.410000", "102942.020000", "102942.630000", "102943.240000", "102943.850000", "102944.460000", "102945.070000", "102945.680000", "102946.290000", "102946.900000", "102947.510000", "102948.120000", "102948.730000", "102949.340000", "102949.950000", "102950.560000", "102951.170000", "102951.780000", "102952.390000", "102953.000000", "102953.610000", "102954.220000", "102954.830000", "102955.440000", "102956.050000", "102956.660000", "102957.270000", "102957.880000", "102958.490000", "102959.100000", "102959.710000", "103000.320000", "103000.930000", "103001.540000", "103002.150000", "103002.760000", "103003.370000", "103003.980000", "103004.590000", "103005.200000", "103005.810000", "103006.420000", "103007.030000", "103007.640000", "103008.250000", "103008.860000", "103009.470000", "103010.080000", "103010.690000", "103011.300000", "103011.910000", "103012.520000", "103013.130000", "103013.740000", "103014.350000", "103014.960000", "103015.570000", "103016.180000", "103016.790000", "103017.400000", "103018.010000", "103018.620000", "103019.230000", "103019.840000", "103020.450000", "103021.060000", "103021.670000", "103022.280000", "103022.890000", "103023.500000", "103024.110000", "103024.720000", "103025.330000", "103025.940000", "103026.550000", "103027.160000", "103027.770000", "103028.380000", "103028.990000", "103029.600000", "103030.210000", "103030.820000", "103031.430000", "103032.040000", "103032.650000", "103033.260000", "103033.870000", "103034.480000", "103035.090000", "103035.700000", "103036.310000", "103036.920000", "103037.530000", "103038.140000", "103038.750000", "103039.360000", "103039.970000", "103040.580000", "103041.190000", "103041.800000", "103042.410000", "103043.020000", "103043.630000", "103044.240000", "103044.850000", "103045.460000", "103046.070000", "103046.680000", "103047.290000", "103047.900000", "103048.510000", "103049.120000", "103049.730000", "103050.340000", "103050.950000", "103051.560000", "103052.170000", "103052.780000", "103053.390000", "103054.000000", "103054.610000", "103055.220000", "103055.830000", "103056.440000", "103057.050000", "103057.660000", "103058.270000", "103058.880000", "103059.490000", "103100.100000", "103100.710000", "103101.320000", "103101.930000", "103102.540000", "103103.150000", "103103.760000", "103104.370000", "103104.980000", "103105.590000", "103106.200000", "103106.810000", "103107.420000", "103108.030000", "103108.640000", "103109.250000", "103109.860000", "103110.470000", "103111.080000", "103111.690000", "103112.300000", "103112.910000", "103113.520000", "103114.130000", "103114.740000", "103115.350000", "103115.960000", "103116.570000", "103117.180000", "103117.790000", "103118.400000", "103119.010000", "103119.620000", "103120.230000"], "ContentTime": ["102850.960000", "102850.963000", "102850.965000", "102850.968000", "102850.970000", "102850.973000", "102850.975000", "102850.977000", "102850.980000", "102850.982000", "102850.985000", "102850.994000", "102850.997000", "102851.000000", "102851.003000", "102851.005000", "102851.008000", "102851.010000", "102851.012000", "102851.015000", "102851.017000", "102851.020000", "102851.022000", "102851.032000", "102851.035000", "102851.037000", "102851.039000", "102851.042000", "102910.955000", "102910.958000", "102910.960000", "102910.963000", "102910.965000", "102910.968000", "102910.970000", "102910.973000", "102910.975000", "102910.977000", "102910.980000", "102910.990000", "102910.993000", "102910.995000", "102910.998000", "102911.002000", "102911.004000", "102911.007000", "102911.009000", "102911.011000", "102911.014000", "102911.016000", "102911.019000", "102911.021000", "102911.023000", "102911.026000", "102911.028000", "102911.031000", "102911.033000", "102911.036000", "102911.038000", "102911.040000", "102930.955000", "102930.959000", "102930.961000", "102930.964000", "102930.966000", "102930.969000", "102930.971000", "102930.973000", "102930.976000", "102930.978000", "102930.981000", "102930.983000", "102930.985000", "102930.988000", "102930.990000", "102930.993000", "102930.995000", "102930.998000", "102931.001000", "102931.003000", "102931.006000", "102931.008000", "102931.011000", "102931.013000", "102931.016000", "102931.018000", "102931.020000", "102931.023000", "102931.025000", "102931.033000", "102931.035000", "102931.038000", "102931.040000", "102950.955000", "102950.967000", "102950.970000", "102950.972000", "102950.975000", "102950.977000", "102950.980000", "102950.982000", "102950.984000", "102950.987000", "102950.989000", "102950.992000", "102950.994000", "102950.996000", "102951.000000", "102951.002000", "102951.005000", "102951.007000", "102951.010000", "102951.012000", "102951.014000", "102951.017000", "102951.019000", "102951.022000", "102951.024000", "102951.026000", "102951.029000", "102951.031000", "102951.034000", "102951.036000", "102951.038000", "102951.041000", "102951.043000", "103010.955000", "103010.958000", "103010.960000", "103010.963000", "103010.965000", "103010.968000", "103010.970000", "103010.973000", "103010.975000", "103010.977000", "103010.980000", "103010.982000", "103010.985000", "103010.987000", "103010.989000", "103010.992000", "103010.994000", "103010.997000", "103011.000000", "103011.002000", "103011.005000", "103011.007000", "103011.009000", "103011.012000", "103011.014000", "103011.017000", "103011.019000", "103011.022000", "103011.024000", "103011.027000", "103011.029000", "103011.031000", "103011.034000", "103030.955000", "103030.963000", "103030.966000", "103030.968000", "103030.971000", "103030.973000", "103030.975000", "103030.978000", "103030.980000", "103030.983000", "103030.985000", "103030.988000", "103030.990000", "103030.992000", "103030.995000", "103030.997000", "103031.001000", "103031.003000", "103031.005000", "103031.008000", "103031.010000", "103031.013000", "103031.015000", "103031.017000", "103031.020000", "103031.022000", "103031.025000", "103031.027000", "103031.030000", "103031.032000", "103031.034000", "103031.037000", "103031.039000", "103050.955000", "103050.958000", "103050.961000", "103050.963000", "103050.966000", "103050.968000", "103050.970000", "103050.973000", "103050.975000", "103050.978000", "103050.980000", "103050.983000", "103050.985000", "103050.987000", "103050.990000", "103050.992000", "103050.995000", "103050.997000", "103051.001000", "103051.003000", "103051.005000", "103051.008000", "103051.010000", "103051.013000", "103051.015000", "103051.018000", "103051.020000", "103051.022000", "103051.025000", "103051.027000", "103051.030000", "103051.032000", "103110.955000", "103110.958000", "103110.960000", "103110.963000", "103110.965000", "103110.968000", "103110.970000", "103110.972000", "103110.975000", "103110.977000", "103110.979000", "103110.982000", "103110.984000", "103110.987000", "103110.989000", "103110.991000", "103110.994000", "103110.997000", "103111.000000", "103111.003000", "103111.005000", "103111.008000", "103111.010000", "103111.013000", "103111.015000", "103111.017000", "103111.020000", "103111.022000", "103111.025000", "103111.027000", "103111.030000", "103111.032000", "103111.034000", "103121.590000", "103121.593000", "103121.595000", "103121.598000", "103121.600000", "103121.603000", "103121.605000", "103121.608000", "103121.610000", "103121.613000", "103121.615000", "103121.618000", "103121.624000", "103121.628000", "103121.631000", "103121.634000", "103121.636000"], "InstanceCreationTime": ["102850.960000", "102850.963000", "102850.965000", "102850.968000", "102850.970000", "102850.973000", "102850.975000", "102850.977000", "102850.980000", "102850.982000", "102850.985000", "102850.994000", "102850.997000", "102851.000000", "102851.003000", "102851.005000", "102851.008000", "102851.010000", "102851.012000", "102851.015000", "102851.017000", "102851.020000", "102851.022000", "102851.032000", "102851.035000", "102851.037000", "102851.039000", "102851.042000", "102910.955000", "102910.958000", "102910.960000", "102910.963000", "102910.965000", "102910.968000", "102910.970000", "102910.973000", "102910.975000", "102910.977000", "102910.980000", "102910.990000", "102910.993000", "102910.995000", "102910.998000", "102911.002000", "102911.004000", "102911.007000", "102911.009000", "102911.011000", "102911.014000", "102911.016000", "102911.019000", "102911.021000", "102911.023000", "102911.026000", "102911.028000", "102911.031000", "102911.033000", "102911.036000", "102911.038000", "102911.040000", "102930.955000", "102930.959000", "102930.961000", "102930.964000", "102930.966000", "102930.969000", "102930.971000", "102930.973000", "102930.976000", "102930.978000", "102930.981000", "102930.983000", "102930.985000", "102930.988000", "102930.990000", "102930.993000", "102930.995000", "102930.998000", "102931.001000", "102931.003000", "102931.006000", "102931.008000", "102931.011000", "102931.013000", "102931.016000", "102931.018000", "102931.020000", "102931.023000", "102931.025000", "102931.033000", "102931.035000", "102931.038000", "102931.040000", "102950.955000", "102950.967000", "102950.970000", "102950.972000", "102950.975000", "102950.977000", "102950.980000", "102950.982000", "102950.984000", "102950.987000", "102950.989000", "102950.992000", "102950.994000", "102950.996000", "102951.000000", "102951.002000", "102951.005000", "102951.007000", "102951.010000", "102951.012000", "102951.014000", "102951.017000", "102951.019000", "102951.022000", "102951.024000", "102951.026000", "102951.029000", "102951.031000", "102951.034000", "102951.036000", "102951.038000", "102951.041000", "102951.043000", "103010.955000", "103010.958000", "103010.960000", "103010.963000", "103010.965000", "103010.968000", "103010.970000", "103010.973000", "103010.975000", "103010.977000", "103010.980000", "103010.982000", "103010.985000", "103010.987000", "103010.989000", "103010.992000", "103010.994000", "103010.997000", "103011.000000", "103011.002000", "103011.005000", "103011.007000", "103011.009000", "103011.012000", "103011.014000", "103011.017000", "103011.019000", "103011.022000", "103011.024000", "103011.027000", "103011.029000", "103011.031000", "103011.034000", "103030.955000", "103030.963000", "103030.966000", "103030.968000", "103030.971000", "103030.973000", "103030.975000", "103030.978000", "103030.980000", "103030.983000", "103030.985000", "103030.988000", "103030.990000", "103030.992000", "103030.995000", "103030.997000", "103031.001000", "103031.003000", "103031.005000", "103031.008000", "103031.010000", "103031.013000", "103031.015000", "103031.017000", "103031.020000", "103031.022000", "103031.025000", "103031.027000", "103031.030000", "103031.032000", "103031.034000", "103031.037000", "103031.039000", "103050.955000", "103050.958000", "103050.961000", "103050.963000", "103050.966000", "103050.968000", "103050.970000", "103050.973000", "103050.975000", "103050.978000", "103050.980000", "103050.983000", "103050.985000", "103050.987000", "103050.990000", "103050.992000", "103050.995000", "103050.997000", "103051.001000", "103051.003000", "103051.005000", "103051.008000", "103051.010000", "103051.013000", "103051.015000", "103051.018000", "103051.020000", "103051.022000", "103051.025000", "103051.027000", "103051.030000", "103051.032000", "103110.955000", "103110.958000", "103110.960000", "103110.963000", "103110.965000", "103110.968000", "103110.970000", "103110.972000", "103110.975000", "103110.977000", "103110.979000", "103110.982000", "103110.984000", "103110.987000", "103110.989000", "103110.991000", "103110.994000", "103110.997000", "103111.000000", "103111.003000", "103111.005000", "103111.008000", "103111.010000", "103111.013000", "103111.015000", "103111.017000", "103111.020000", "103111.022000", "103111.025000", "103111.027000", "103111.030000", "103111.032000", "103111.034000", "103121.590000", "103121.593000", "103121.595000", "103121.598000", "103121.600000", "103121.603000", "103121.605000", "103121.608000", "103121.610000", "103121.613000", "103121.615000", "103121.618000", "103121.624000", "103121.628000", "103121.631000", "103121.634000", "103121.636000"], "InstanceNumber": [1, 2, 3, 4, 5, 6, 7, 8, 9, 10, 11, 12, 13, 14, 15, 16, 17, 18, 19, 20, 21, 22, 23, 24, 25, 26, 27, 28, 29, 30, 31, 32, 33, 34, 35, 36, 37, 38, 39, 40, 41, 42, 43, 44, 45, 46, 47, 48, 49, 50, 51, 52, 53, 54, 55, 56, 57, 58, 59, 60, 61, 62, 63, 64, 65, 66, 67, 68, 69, 70, 71, 72, 73, 74, 75, 76, 77, 78, 79, 80, 81, 82, 83, 84, 85, 86, 87, 88, 89, 90, 91, 92, 93, 94, 95, 96, 97, 98, 99, 100, 101, 102, 103, 104, 105, 106, 107, 108, 109, 110, 111, 112, 113, 114, 115, 116, 117, 118, 119, 120, 121, 122, 123, 124, 125, 126, 127, 128, 129, 130, 131, 132, 133, 134, 135, 136, 137, 138, 139, 140, 141, 142, 143, 144, 145, 146, 147, 148, 149, 150, 151, 152, 153, 154, 155, 156, 157, 158, 159, 160, 161, 162, 163, 164, 165, 166, 167, 168, 169, 170, 171, 172, 173, 174, 175, 176, 177, 178, 179, 180, 181, 182, 183, 184, 185, 186, 187, 188, 189, 190, 191, 192, 193, 194, 195, 196, 197, 198, 199, 200, 201, 202, 203, 204, 205, 206, 207, 208, 209, 210, 211, 212, 213, 214, 215, 216, 217, 218, 219, 220, 221, 222, 223, 224, 225, 226, 227, 228, 229, 230, 231, 232, 233, 234, 235, 236, 237, 238, 239, 240, 241, 242, 243, 244, 245, 246, 247, 248, 249, 250, 251, 252, 253, 254, 255, 256, 257, 258, 259, 260, 261, 262, 263, 264, 265, 266, 267, 268, 269, 270, 271, 272, 273, 274], "LargestImagePixelValue": [519, 411, 418, 407, 418, 403, 423, 466, 403, 411, 440, 468, 405, 431, 426, 464, 421, 421, 410, 411, 410, 410, 424, 412, 448, 442, 461, 413, 452, 446, 409, 421, 410, 411, 404, 410, 416, 408, 456, 423, 470, 411, 436, 411, 412, 409, 412, 410, 411, 408, 417, 422, 416, 459, 455, 425, 415, 426, 401, 491, 451, 434, 467, 426, 431, 407, 428, 411, 407, 410, 408, 406, 409, 418, 427, 438, 448, 438, 435, 442, 402, 407, 423, 407, 410, 416, 414, 406, 406, 408, 415, 410, 427, 409, 437, 423, 415, 409, 431, 434, 420, 432, 410, 427, 577, 469, 536, 506, 556, 493, 436, 433, 424, 454, 475, 450, 427, 403, 413, 413, 408, 408, 438, 409, 407, 415, 407, 438, 404, 448, 404, 426, 411, 402, 414, 432, 416, 411, 409, 419, 409, 414, 412, 442, 415, 404, 417, 408, 436, 414, 426, 403, 412, 461, 413, 411, 417, 407, 421, 412, 414, 425, 414, 413, 414, 413, 414, 412, 414, 424, 407, 409, 446, 423, 417, 418, 414, 409, 413, 411, 409, 416, 406, 447, 408, 440, 409, 413, 437, 406, 410, 433, 407, 426, 409, 427, 408, 413, 437, 410, 412, 445, 409, 409, 433, 409, 432, 410, 410, 409, 411, 413, 415, 425, 425, 412, 414, 444, 418, 415, 429, 414, 451, 413, 414, 456, 412, 415, 443, 412, 415, 411, 408, 411, 409, 418, 412, 410, 422, 412, 432, 416, 412, 438, 415, 425, 446, 417, 425, 442, 416, 412, 429, 415, 422, 415, 414, 416, 413, 416, 411, 414, 413, 417, 414, 418, 417, 418, 418, 419, 432, 416, 437, 440], "WindowCenter": [276.0, 272.0, 272.0, 271.0, 271.0, 271.0, 271.0, 273.0, 271.0, 271.0, 272.0, 272.0, 271.0, 272.0, 271.0, 272.0, 271.0, 271.0, 271.0, 271.0, 271.0, 271.0, 271.0, 271.0, 272.0, 272.0, 272.0, 271.0, 272.0, 271.0, 271.0, 271.0, 271.0, 271.0, 271.0, 272.0, 271.0, 271.0, 272.0, 270.0, 272.0, 271.0, 271.0, 271.0, 270.0, 270.0, 272.0, 271.0, 271.0, 270.0, 271.0, 271.0, 271.0, 272.0, 272.0, 271.0, 271.0, 270.0, 270.0, 272.0, 271.0, 270.0, 271.0, 270.0, 270.0, 270.0, 271.0, 271.0, 270.0, 272.0, 271.0, 270.0, 270.0, 270.0, 270.0, 270.0, 270.0, 270.0, 271.0, 270.0, 269.0, 270.0, 270.0, 270.0, 270.0, 271.0, 271.0, 270.0, 271.0, 271.0, 272.0, 272.0, 271.0, 271.0, 271.0, 274.0, 273.0, 271.0, 268.0, 274.0, 272.0, 273.0, 272.0, 272.0, 274.0, 273.0, 274.0, 267.0, 276.0, 274.0, 272.0, 270.0, 266.0, 270.0, 270.0, 269.0, 269.0, 268.0, 270.0, 270.0, 269.0, 270.0, 271.0, 270.0, 269.0, 270.0, 269.0, 270.0, 269.0, 270.0, 269.0, 269.0, 270.0, 268.0, 272.0, 271.0, 271.0, 270.0, 270.0, 270.0, 270.0, 271.0, 271.0, 271.0, 271.0, 269.0, 271.0, 269.0, 271.0, 271.0, 271.0, 270.0, 271.0, 272.0, 272.0, 271.0, 272.0, 271.0, 273.0, 271.0, 272.0, 272.0, 272.0, 273.0, 272.0, 272.0, 272.0, 271.0, 272.0, 272.0, 271.0, 272.0, 274.0, 272.0, 273.0, 273.0, 272.0, 271.0, 273.0, 272.0, 271.0, 273.0, 271.0, 272.0, 270.0, 271.0, 270.0, 271.0, 271.0, 270.0, 271.0, 270.0, 269.0, 270.0, 270.0, 270.0, 270.0, 271.0, 271.0, 270.0, 270.0, 271.0, 270.0, 270.0, 272.0, 270.0, 271.0, 271.0, 270.0, 270.0, 272.0, 271.0, 272.0, 272.0, 272.0, 271.0, 272.0, 272.0, 271.0, 271.0, 271.0, 271.0, 272.0, 270.0, 270.0, 271.0, 270.0, 270.0, 271.0, 272.0, 271.0, 271.0, 271.0, 272.0, 272.0, 273.0, 273.0, 272.0, 272.0, 272.0, 273.0, 273.0, 272.0, 272.0, 271.0, 271.0, 272.0, 272.0, 271.0, 271.0, 271.0, 271.0, 271.0, 272.0, 271.0, 271.0, 272.0, 272.0, 272.0, 273.0, 272.0, 273.0, 272.0, 273.0, 272.0, 272.0, 272.0, 272.0, 272.0, 272.0, 272.0, 272.0, 272.0, 272.0], "WindowWidth": [607.0, 600.0, 599.0, 598.0, 598.0, 597.0, 599.0, 601.0, 598.0, 599.0, 600.0, 600.0, 598.0, 599.0, 598.0, 599.0, 598.0, 599.0, 599.0, 599.0, 598.0, 599.0, 598.0, 598.0, 600.0, 600.0, 599.0, 599.0, 599.0, 598.0, 598.0, 599.0, 598.0, 597.0, 598.0, 599.0, 598.0, 598.0, 599.0, 597.0, 599.0, 599.0, 598.0, 598.0, 597.0, 596.0, 599.0, 598.0, 598.0, 597.0, 598.0, 599.0, 598.0, 599.0, 600.0, 598.0, 598.0, 596.0, 595.0, 598.0, 597.0, 596.0, 597.0, 597.0, 597.0, 596.0, 598.0, 598.0, 596.0, 599.0, 597.0, 596.0, 596.0, 597.0, 596.0, 596.0, 595.0, 595.0, 597.0, 596.0, 594.0, 595.0, 595.0, 596.0, 597.0, 597.0, 598.0, 597.0, 598.0, 598.0, 600.0, 600.0, 599.0, 599.0, 598.0, 603.0, 601.0, 599.0, 592.0, 604.0, 599.0, 601.0, 600.0, 600.0, 603.0, 602.0, 604.0, 590.0, 607.0, 603.0, 600.0, 596.0, 589.0, 595.0, 596.0, 593.0, 593.0, 593.0, 595.0, 596.0, 595.0, 597.0, 597.0, 596.0, 595.0, 597.0, 594.0, 596.0, 595.0, 596.0, 594.0, 595.0, 596.0, 592.0, 600.0, 598.0, 599.0, 596.0, 597.0, 596.0, 597.0, 598.0, 598.0, 597.0, 598.0, 595.0, 598.0, 595.0, 598.0, 598.0, 598.0, 596.0, 598.0, 598.0, 599.0, 598.0, 600.0, 597.0, 601.0, 598.0, 599.0, 600.0, 599.0, 601.0, 600.0, 600.0, 600.0, 599.0, 600.0, 600.0, 599.0, 600.0, 604.0, 600.0, 601.0, 601.0, 600.0, 599.0, 601.0, 600.0, 599.0, 601.0, 597.0, 600.0, 597.0, 598.0, 597.0, 598.0, 597.0, 597.0, 597.0, 596.0, 595.0, 597.0, 595.0, 596.0, 597.0, 598.0, 598.0, 597.0, 597.0, 598.0, 596.0, 597.0, 599.0, 597.0, 597.0, 598.0, 597.0, 597.0, 599.0, 598.0, 600.0, 600.0, 600.0, 598.0, 599.0, 599.0, 598.0, 598.0, 599.0, 598.0, 599.0, 597.0, 597.0, 598.0, 597.0, 597.0, 598.0, 599.0, 598.0, 599.0, 598.0, 600.0, 600.0, 601.0, 601.0, 600.0, 600.0, 600.0, 601.0, 601.0, 599.0, 599.0, 598.0, 598.0, 600.0, 600.0, 598.0, 598.0, 598.0, 598.0, 598.0, 599.0, 598.0, 598.0, 599.0, 600.0, 599.0, 601.0, 600.0, 601.0, 600.0, 601.0, 600.0, 600.0, 600.0, 600.0, 600.0, 600.0, 599.0, 599.0, 599.0, 599.0]}, "slices": {}}, "EventTimestamp": "10-31-28"}