{"AcquisitionMatrixPE": 64, "AcquisitionNumber": 1, "AcquisitionTime": "16:13:55.745000", "BandwidthPerPixelPhaseEncode": 28.935, "BaseResolution": 64, "BodyPartExamined": "BRAIN", "CoilCombinationMethod": "Sum of Squares", "ConsistencyInfo": "N4_VE11E_LATEST_20181129", "ConversionSoftware": "dcm2niix", "ConversionSoftwareVersion": "v1.0.20230411", "DerivedVendorReportedEchoSpacing": 0.000540003, "DeviceSerialNumber": "166182", "DwellTime": 3.4e-06, "EchoTime": 0.032, "EchoTrainLength": 64, "EffectiveEchoSpacing": 0.000540003, "FlipAngle": 40, "HeudiconvVersion": "0.13.1", "ImageOrientationPatientDICOM": [0.997256, 0.0186245, 0.0716524, -0.00992141, 0.99273, -0.119952], "ImageOrientationText": "Tra>Cor(-6.8)>Sag(4.2)", "ImageType": ["ORIGINAL", "PRIMARY", "M", "ND", "NORM", "MOSAIC"], "ImagingFrequency": 123.257417, "InPlanePhaseEncodingDirectionDICOM": "COL", "InstitutionAddress": "PEARSE STREET .,City,District,IE,D2", "InstitutionName": "TCIN", "InstitutionalDepartmentName": "MRI", "MRAcquisitionType": "2D", "MagneticFieldStrength": 3, "Manufacturer": "Siemens", "ManufacturersModelName": "Prisma", "Modality": "MR", "MultibandAccelerationFactor": 4, "NonlinearGradientCorrection": false, "PartialFourier": 1, "PatientPosition": "HFS", "PercentPhaseFOV": 100, "PercentSampling": 100, "PhaseEncodingDirection": "j-", "PhaseEncodingSteps": 64, "PhaseResolution": 1, "PixelBandwidth": 2300, "ProcedureStepDescription": "Rhodri^Head BOLD", "ProtocolName": "cmrr_mbep2d_bold_Pictures_AP", "PulseSequenceDetails": "%SiemensSeq%\\ep2d_bold", "ReceiveCoilActiveElements": "HC2,4,6,7;NC2;SC", "ReceiveCoilName": "SpecialPurpose_4", "ReconMatrixPE": 64, "RefLinesPE": 12, "RepetitionTime": 0.61, "SAR": 0.216463, "ScanOptions": "FS", "ScanningSequence": "EP", "SequenceName": "*epfid2d1_64", "SequenceVariant": "SK", "SeriesDescription": "cmrr_mbep2d_bold_Pictures_AP", "SeriesNumber": 10, "ShimSetting": [-3549, -7376, 3794, 882, -255, -154, -100, -39], "SliceThickness": 3, "SliceTiming": [0.2625, 0, 0.3275, 0.065, 0.3925, 0.13, 0.46, 0.1975, 0.525, 0.2625, 0, 0.3275, 0.065, 0.3925, 0.13, 0.46, 0.1975, 0.525, 0.2625, 0, 0.3275, 0.065, 0.3925, 0.13, 0.46, 0.1975, 0.525, 0.2625, 0, 0.3275, 0.065, 0.3925, 0.13, 0.46, 0.1975, 0.525], "SoftwareVersions": "syngo MR E11", "SpacingBetweenSlices": 3.3, "StationName": "AWP166182", "TaskName": "pictures", "TotalReadoutTime": 0.0340202, "TxRefAmp": 241.814, "dcmmeta_affine": [[-2.991767406463623, -0.029764225706458092, 0.24210618436336517, 96.52445220947266], [-0.05587337538599968, 2.9781901836395264, -0.39241084456443787, -99.50568389892578], [0.2149571180343628, 0.35985735058784485, 3.2676286697387695, -118.66862487792969], [0.0, 0.0, 0.0, 1.0]], "dcmmeta_reorient_transform": [[0.0, -1.0, 0.0, 63.0], [1.0, 0.0, 0.0, 0.0], [0.0, 0.0, 1.0, 0.0], [0.0, 0.0, 0.0, 1.0]], "dcmmeta_shape": [64, 64, 36, 510], "dcmmeta_slice_dim": 2, "dcmmeta_version": 0.6, "global": {"const": {"AcquisitionMatrix": [64, 0, 0, 64], "AngioFlag": "N", "BitsAllocated": 16, "BitsStored": 12, "BodyPartExamined": "BRAIN", "Columns": 384, "EchoNumbers": 1, "EchoTime": 32.0, "EchoTrainLength": 64, "FlipAngle": 40.0, "HighBit": 11, "ImageOrientationPatient": [0.99725576817957, 0.0186244581876, 0.07165237183653, -0.0099214086677, 0.99273006176963, -0.1199524493661], "ImagePositionPatient": [-568.56980101594, -573.57046930347, -72.813577645214], "ImageType": ["ORIGINAL", "PRIMARY", "M", "ND", "NORM", "MOSAIC"], "ImagedNucleus": "1H", "ImagingFrequency": 123.257417, "InPlanePhaseEncodingDirection": "COL", "MRAcquisitionType": "2D", "MagneticFieldStrength": 3.0, "Manufacturer": "SIEMENS", "ManufacturerModelName": "Prisma", "Modality": "MR", "NumberOfAverages": 1.0, "NumberOfPhaseEncodingSteps": 64, "PercentPhaseFieldOfView": 100.0, "PercentSampling": 100.0, "PerformedProcedureStepStartTime": "153045.979000", "PhotometricInterpretation": "MONOCHROME2", "PixelBandwidth": 2300.0, "PixelRepresentation": 0, "PixelSpacing": [3.0, 3.0], "ProtocolName": "cmrr_mbep2d_bold_Pictures_AP", "RepetitionTime": 610.0, "Rows": 384, "SAR": 0.21646332082062, "SamplesPerPixel": 1, "ScanOptions": "FS", "ScanningSequence": "EP", "SequenceName": "*epfid2d1_64", "SequenceVariant": "SK", "SeriesDescription": "cmrr_mbep2d_bold_Pictures_AP", "SeriesNumber": 10, "SeriesTime": "161424.612000", "SliceLocation": -98.590531601282, "SliceThickness": 3.0, "SmallestImagePixelValue": 0, "SoftwareVersions": "syngo MR E11", "SpacingBetweenSlices": 3.2999999047239, "SpecificCharacterSet": "ISO_IR 100", "StudyID": "2", "StudyTime": "153045.938000", "TransmitCoilName": "Body", "VariableFlipAngleFlag": "N", "WindowCenterWidthExplanation": "Algo1"}, "slices": {}}, "time": {"samples": {"AcquisitionNumber": [1, 2, 3, 4, 5, 6, 7, 8, 9, 10, 11, 12, 13, 14, 15, 16, 17, 18, 19, 20, 21, 22, 23, 24, 25, 26, 27, 28, 29, 30, 31, 32, 33, 34, 35, 36, 37, 38, 39, 40, 41, 42, 43, 44, 45, 46, 47, 48, 49, 50, 51, 52, 53, 54, 55, 56, 57, 58, 59, 60, 61, 62, 63, 64, 65, 66, 67, 68, 69, 70, 71, 72, 73, 74, 75, 76, 77, 78, 79, 80, 81, 82, 83, 84, 85, 86, 87, 88, 89, 90, 91, 92, 93, 94, 95, 96, 97, 98, 99, 100, 101, 102, 103, 104, 105, 106, 107, 108, 109, 110, 111, 112, 113, 114, 115, 116, 117, 118, 119, 120, 121, 122, 123, 124, 125, 126, 127, 128, 129, 130, 131, 132, 133, 134, 135, 136, 137, 138, 139, 140, 141, 142, 143, 144, 145, 146, 147, 148, 149, 150, 151, 152, 153, 154, 155, 156, 157, 158, 159, 160, 161, 162, 163, 164, 165, 166, 167, 168, 169, 170, 171, 172, 173, 174, 175, 176, 177, 178, 179, 180, 181, 182, 183, 184, 185, 186, 187, 188, 189, 190, 191, 192, 193, 194, 195, 196, 197, 198, 199, 200, 201, 202, 203, 204, 205, 206, 207, 208, 209, 210, 211, 212, 213, 214, 215, 216, 217, 218, 219, 220, 221, 222, 223, 224, 225, 226, 227, 228, 229, 230, 231, 232, 233, 234, 235, 236, 237, 238, 239, 240, 241, 242, 243, 244, 245, 246, 247, 248, 249, 250, 251, 252, 253, 254, 255, 256, 257, 258, 259, 260, 261, 262, 263, 264, 265, 266, 267, 268, 269, 270, 271, 272, 273, 274, 275, 276, 277, 278, 279, 280, 281, 282, 283, 284, 285, 286, 287, 288, 289, 290, 291, 292, 293, 294, 295, 296, 297, 298, 299, 300, 301, 302, 303, 304, 305, 306, 307, 308, 309, 310, 311, 312, 313, 314, 315, 316, 317, 318, 319, 320, 321, 322, 323, 324, 325, 326, 327, 328, 329, 330, 331, 332, 333, 334, 335, 336, 337, 338, 339, 340, 341, 342, 343, 344, 345, 346, 347, 348, 349, 350, 351, 352, 353, 354, 355, 356, 357, 358, 359, 360, 361, 362, 363, 364, 365, 366, 367, 368, 369, 370, 371, 372, 373, 374, 375, 376, 377, 378, 379, 380, 381, 382, 383, 384, 385, 386, 387, 388, 389, 390, 391, 392, 393, 394, 395, 396, 397, 398, 399, 400, 401, 402, 403, 404, 405, 406, 407, 408, 409, 410, 411, 412, 413, 414, 415, 416, 417, 418, 419, 420, 421, 422, 423, 424, 425, 426, 427, 428, 429, 430, 431, 432, 433, 434, 435, 436, 437, 438, 439, 440, 441, 442, 443, 444, 445, 446, 447, 448, 449, 450, 451, 452, 453, 454, 455, 456, 457, 458, 459, 460, 461, 462, 463, 464, 465, 466, 467, 468, 469, 470, 471, 472, 473, 474, 475, 476, 477, 478, 479, 480, 481, 482, 483, 484, 485, 486, 487, 488, 489, 490, 491, 492, 493, 494, 495, 496, 497, 498, 499, 500, 501, 502, 503, 504, 505, 506, 507, 508, 509, 510], "AcquisitionTime": ["161355.745000", "161356.355000", "161356.965000", "161357.575000", "161358.185000", "161358.795000", "161359.405000", "161400.015000", "161400.625000", "161401.235000", "161401.845000", "161402.455000", "161403.065000", "161403.675000", "161404.285000", "161404.895000", "161405.505000", "161406.115000", "161406.725000", "161407.335000", "161407.945000", "161408.555000", "161409.165000", "161409.775000", "161410.385000", "161410.995000", "161411.605000", "161412.215000", "161412.825000", "161413.435000", "161414.045000", "161414.655000", "161415.265000", "161415.875000", "161416.485000", "161417.095000", "161417.705000", "161418.315000", "161418.925000", "161419.535000", "161420.145000", "161420.755000", "161421.365000", "161421.975000", "161422.585000", "161423.195000", "161423.805000", "161424.415000", "161425.025000", "161425.635000", "161426.245000", "161426.855000", "161427.465000", "161428.075000", "161428.685000", "161429.295000", "161429.905000", "161430.515000", "161431.125000", "161431.735000", "161432.345000", "161432.955000", "161433.565000", "161434.175000", "161434.785000", "161435.395000", "161436.005000", "161436.615000", "161437.225000", "161437.835000", "161438.445000", "161439.055000", "161439.665000", "161440.275000", "161440.885000", "161441.495000", "161442.105000", "161442.715000", "161443.325000", "161443.935000", "161444.545000", "161445.155000", "161445.765000", "161446.375000", "161446.985000", "161447.595000", "161448.205000", "161448.815000", "161449.425000", "161450.035000", "161450.645000", "161451.255000", "161451.865000", "161452.475000", "161453.085000", "161453.695000", "161454.305000", "161454.915000", "161455.525000", "161456.135000", "161456.745000", "161457.355000", "161457.965000", "161458.575000", "161459.185000", "161459.795000", "161500.405000", "161501.015000", "161501.625000", "161502.235000", "161502.845000", "161503.455000", "161504.065000", "161504.675000", "161505.285000", "161505.895000", "161506.505000", "161507.115000", "161507.725000", "161508.335000", "161508.945000", "161509.555000", "161510.165000", "161510.775000", "161511.385000", "161511.995000", "161512.605000", "161513.215000", "161513.825000", "161514.435000", "161515.045000", "161515.655000", "161516.265000", "161516.875000", "161517.485000", "161518.095000", "161518.705000", "161519.315000", "161519.925000", "161520.535000", "161521.145000", "161521.755000", "161522.365000", "161522.975000", "161523.585000", "161524.195000", "161524.805000", "161525.415000", "161526.025000", "161526.635000", "161527.245000", "161527.855000", "161528.465000", "161529.075000", "161529.685000", "161530.295000", "161530.905000", "161531.515000", "161532.125000", "161532.735000", "161533.345000", "161533.955000", "161534.565000", "161535.175000", "161535.785000", "161536.395000", "161537.005000", "161537.615000", "161538.225000", "161538.835000", "161539.445000", "161540.055000", "161540.665000", "161541.275000", "161541.885000", "161542.495000", "161543.105000", "161543.715000", "161544.325000", "161544.935000", "161545.545000", "161546.155000", "161546.765000", "161547.375000", "161547.985000", "161548.595000", "161549.205000", "161549.815000", "161550.425000", "161551.035000", "161551.645000", "161552.255000", "161552.865000", "161553.475000", "161554.085000", "161554.695000", "161555.305000", "161555.915000", "161556.525000", "161557.135000", "161557.745000", "161558.355000", "161558.965000", "161559.575000", "161600.185000", "161600.795000", "161601.405000", "161602.015000", "161602.625000", "161603.235000", "161603.845000", "161604.455000", "161605.065000", "161605.675000", "161606.285000", "161606.895000", "161607.505000", "161608.115000", "161608.725000", "161609.335000", "161609.945000", "161610.555000", "161611.165000", "161611.775000", "161612.385000", "161612.995000", "161613.605000", "161614.215000", "161614.825000", "161615.435000", "161616.045000", "161616.655000", "161617.265000", "161617.875000", "161618.485000", "161619.095000", "161619.705000", "161620.315000", "161620.925000", "161621.535000", "161622.145000", "161622.755000", "161623.365000", "161623.975000", "161624.585000", "161625.195000", "161625.805000", "161626.415000", "161627.025000", "161627.635000", "161628.245000", "161628.855000", "161629.465000", "161630.075000", "161630.685000", "161631.295000", "161631.905000", "161632.515000", "161633.125000", "161633.735000", "161634.345000", "161634.955000", "161635.565000", "161636.175000", "161636.785000", "161637.395000", "161638.005000", "161638.615000", "161639.225000", "161639.835000", "161640.445000", "161641.055000", "161641.665000", "161642.275000", "161642.885000", "161643.495000", "161644.105000", "161644.715000", "161645.325000", "161645.935000", "161646.545000", "161647.155000", "161647.765000", "161648.375000", "161648.985000", "161649.595000", "161650.205000", "161650.815000", "161651.425000", "161652.035000", "161652.645000", "161653.255000", "161653.865000", "161654.475000", "161655.085000", "161655.695000", "161656.305000", "161656.915000", "161657.525000", "161658.135000", "161658.745000", "161659.355000", "161659.965000", "161700.575000", "161701.185000", "161701.795000", "161702.405000", "161703.015000", "161703.625000", "161704.235000", "161704.845000", "161705.455000", "161706.065000", "161706.675000", "161707.285000", "161707.895000", "161708.505000", "161709.115000", "161709.725000", "161710.335000", "161710.945000", "161711.555000", "161712.165000", "161712.775000", "161713.385000", "161713.995000", "161714.605000", "161715.215000", "161715.825000", "161716.435000", "161717.045000", "161717.655000", "161718.265000", "161718.875000", "161719.485000", "161720.095000", "161720.705000", "161721.315000", "161721.925000", "161722.535000", "161723.145000", "161723.755000", "161724.365000", "161724.975000", "161725.585000", "161726.195000", "161726.805000", "161727.415000", "161728.025000", "161728.635000", "161729.245000", "161729.855000", "161730.465000", "161731.075000", "161731.685000", "161732.295000", "161732.905000", "161733.515000", "161734.125000", "161734.735000", "161735.345000", "161735.955000", "161736.565000", "161737.175000", "161737.785000", "161738.395000", "161739.005000", "161739.615000", "161740.225000", "161740.835000", "161741.445000", "161742.055000", "161742.665000", "161743.275000", "161743.885000", "161744.495000", "161745.105000", "161745.715000", "161746.325000", "161746.935000", "161747.545000", "161748.155000", "161748.765000", "161749.375000", "161749.985000", "161750.595000", "161751.205000", "161751.815000", "161752.425000", "161753.035000", "161753.645000", "161754.255000", "161754.865000", "161755.475000", "161756.085000", "161756.695000", "161757.305000", "161757.915000", "161758.525000", "161759.135000", "161759.745000", "161800.355000", "161800.965000", "161801.575000", "161802.185000", "161802.795000", "161803.405000", "161804.015000", "161804.625000", "161805.235000", "161805.845000", "161806.455000", "161807.065000", "161807.675000", "161808.285000", "161808.895000", "161809.505000", "161810.115000", "161810.725000", "161811.335000", "161811.945000", "161812.555000", "161813.165000", "161813.775000", "161814.385000", "161814.995000", "161815.605000", "161816.215000", "161816.825000", "161817.435000", "161818.045000", "161818.655000", "161819.265000", "161819.875000", "161820.485000", "161821.095000", "161821.705000", "161822.315000", "161822.925000", "161823.535000", "161824.145000", "161824.755000", "161825.365000", "161825.975000", "161826.585000", "161827.195000", "161827.805000", "161828.415000", "161829.025000", "161829.635000", "161830.245000", "161830.855000", "161831.465000", "161832.075000", "161832.685000", "161833.295000", "161833.905000", "161834.515000", "161835.125000", "161835.735000", "161836.345000", "161836.955000", "161837.565000", "161838.175000", "161838.785000", "161839.395000", "161840.005000", "161840.615000", "161841.225000", "161841.835000", "161842.445000", "161843.055000", "161843.665000", "161844.275000", "161844.885000", "161845.495000", "161846.105000", "161846.715000", "161847.325000", "161847.935000", "161848.545000", "161849.155000", "161849.765000", "161850.375000", "161850.985000", "161851.595000", "161852.205000", "161852.815000", "161853.425000", "161854.035000", "161854.645000", "161855.255000", "161855.865000", "161856.475000", "161857.085000", "161857.695000", "161858.305000", "161858.915000", "161859.525000", "161900.135000", "161900.745000", "161901.355000", "161901.965000", "161902.575000", "161903.185000", "161903.795000", "161904.405000", "161905.015000", "161905.625000", "161906.235000"], "ContentTime": ["161424.615000", "161424.618000", "161424.622000", "161424.624000", "161424.627000", "161424.629000", "161424.632000", "161424.634000", "161424.636000", "161424.639000", "161424.641000", "161424.644000", "161424.646000", "161424.654000", "161424.657000", "161424.659000", "161424.662000", "161424.664000", "161424.667000", "161424.669000", "161424.672000", "161424.674000", "161424.677000", "161424.679000", "161424.682000", "161424.684000", "161424.686000", "161424.689000", "161424.691000", "161424.694000", "161424.696000", "161424.699000", "161424.701000", "161424.704000", "161424.706000", "161424.708000", "161424.711000", "161424.713000", "161424.716000", "161424.718000", "161424.721000", "161424.723000", "161424.725000", "161424.728000", "161424.730000", "161424.733000", "161444.610000", "161444.613000", "161444.616000", "161444.618000", "161444.620000", "161444.623000", "161444.625000", "161444.628000", "161444.630000", "161444.632000", "161444.635000", "161444.637000", "161444.640000", "161444.642000", "161444.645000", "161444.647000", "161444.650000", "161444.652000", "161444.654000", "161444.657000", "161444.659000", "161444.662000", "161444.664000", "161444.667000", "161444.669000", "161444.672000", "161444.674000", "161444.676000", "161444.679000", "161444.681000", "161444.684000", "161444.686000", "161444.695000", "161504.610000", "161504.613000", "161504.619000", "161504.622000", "161504.624000", "161504.627000", "161504.629000", "161504.632000", "161504.634000", "161504.637000", "161504.639000", "161504.641000", "161504.644000", "161504.646000", "161504.649000", "161504.651000", "161504.654000", "161504.656000", "161504.658000", "161504.661000", "161504.663000", "161504.666000", "161504.668000", "161504.670000", "161504.673000", "161504.675000", "161504.678000", "161504.680000", "161504.683000", "161504.685000", "161504.688000", "161504.690000", "161504.693000", "161524.610000", "161524.613000", "161524.615000", "161524.618000", "161524.620000", "161524.623000", "161524.625000", "161524.628000", "161524.630000", "161524.632000", "161524.635000", "161524.637000", "161524.640000", "161524.642000", "161524.645000", "161524.647000", "161524.649000", "161524.652000", "161524.654000", "161524.657000", "161524.659000", "161524.662000", "161524.664000", "161524.666000", "161524.669000", "161524.671000", "161524.674000", "161524.676000", "161524.679000", "161524.681000", "161524.684000", "161524.686000", "161524.688000", "161544.611000", "161544.614000", "161544.616000", "161544.619000", "161544.621000", "161544.624000", "161544.626000", "161544.629000", "161544.632000", "161544.634000", "161544.636000", "161544.639000", "161544.641000", "161544.644000", "161544.646000", "161544.649000", "161544.651000", "161544.654000", "161544.656000", "161544.658000", "161544.661000", "161544.663000", "161544.666000", "161544.668000", "161544.671000", "161544.673000", "161544.676000", "161544.678000", "161544.681000", "161544.683000", "161544.685000", "161544.688000", "161604.610000", "161604.613000", "161604.616000", "161604.618000", "161604.621000", "161604.623000", "161604.626000", "161604.628000", "161604.630000", "161604.633000", "161604.635000", "161604.638000", "161604.640000", "161604.643000", "161604.645000", "161604.648000", "161604.650000", "161604.652000", "161604.655000", "161604.657000", "161604.661000", "161604.664000", "161604.666000", "161604.669000", "161604.671000", "161604.674000", "161604.676000", "161604.679000", "161604.681000", "161604.683000", "161604.686000", "161604.702000", "161604.704000", "161624.610000", "161624.613000", "161624.615000", "161624.618000", "161624.620000", "161624.623000", "161624.625000", "161624.628000", "161624.630000", "161624.632000", "161624.635000", "161624.637000", "161624.640000", "161624.642000", "161624.645000", "161624.647000", "161624.650000", "161624.652000", "161624.654000", "161624.657000", "161624.659000", "161624.662000", "161624.664000", "161624.667000", "161624.669000", "161624.672000", "161624.674000", "161624.677000", "161624.679000", "161624.681000", "161624.684000", "161624.686000", "161624.689000", "161644.610000", "161644.613000", "161644.615000", "161644.618000", "161644.621000", "161644.623000", "161644.626000", "161644.628000", "161644.630000", "161644.633000", "161644.635000", "161644.638000", "161644.640000", "161644.643000", "161644.645000", "161644.647000", "161644.650000", "161644.652000", "161644.655000", "161644.657000", "161644.660000", "161644.662000", "161644.665000", "161644.667000", "161644.669000", "161644.672000", "161644.674000", "161644.677000", "161644.679000", "161644.682000", "161644.684000", "161644.686000", "161644.689000", "161704.610000", "161704.613000", "161704.616000", "161704.618000", "161704.620000", "161704.623000", "161704.625000", "161704.628000", "161704.630000", "161704.633000", "161704.635000", "161704.638000", "161704.640000", "161704.643000", "161704.645000", "161704.648000", "161704.650000", "161704.652000", "161704.655000", "161704.657000", "161704.660000", "161704.662000", "161704.665000", "161704.667000", "161704.669000", "161704.672000", "161704.674000", "161704.677000", "161704.679000", "161704.682000", "161704.684000", "161704.687000", "161704.689000", "161724.611000", "161724.613000", "161724.616000", "161724.618000", "161724.621000", "161724.623000", "161724.626000", "161724.628000", "161724.630000", "161724.633000", "161724.635000", "161724.638000", "161724.640000", "161724.643000", "161724.645000", "161724.648000", "161724.650000", "161724.653000", "161724.655000", "161724.657000", "161724.660000", "161724.662000", "161724.665000", "161724.667000", "161724.670000", "161724.672000", "161724.675000", "161724.677000", "161724.680000", "161724.682000", "161724.684000", "161724.687000", "161744.610000", "161744.613000", "161744.615000", "161744.618000", "161744.620000", "161744.623000", "161744.625000", "161744.628000", "161744.630000", "161744.633000", "161744.635000", "161744.638000", "161744.640000", "161744.643000", "161744.645000", "161744.648000", "161744.650000", "161744.653000", "161744.655000", "161744.658000", "161744.660000", "161744.663000", "161744.665000", "161744.668000", "161744.670000", "161744.673000", "161744.676000", "161744.678000", "161744.680000", "161744.683000", "161744.685000", "161744.688000", "161744.690000", "161804.611000", "161804.614000", "161804.617000", "161804.619000", "161804.622000", "161804.624000", "161804.627000", "161804.630000", "161804.632000", "161804.635000", "161804.637000", "161804.640000", "161804.643000", "161804.645000", "161804.648000", "161804.651000", "161804.653000", "161804.656000", "161804.658000", "161804.661000", "161804.663000", "161804.666000", "161804.668000", "161804.671000", "161804.673000", "161804.676000", "161804.678000", "161804.681000", "161804.684000", "161804.686000", "161804.689000", "161804.691000", "161804.694000", "161824.610000", "161824.613000", "161824.615000", "161824.618000", "161824.620000", "161824.623000", "161824.625000", "161824.628000", "161824.630000", "161824.633000", "161824.635000", "161824.638000", "161824.640000", "161824.643000", "161824.645000", "161824.647000", "161824.650000", "161824.652000", "161824.655000", "161824.657000", "161824.660000", "161824.662000", "161824.665000", "161824.667000", "161824.670000", "161824.672000", "161824.674000", "161824.677000", "161824.679000", "161824.682000", "161824.684000", "161824.687000", "161824.689000", "161844.610000", "161844.613000", "161844.616000", "161844.618000", "161844.621000", "161844.623000", "161844.626000", "161844.628000", "161844.631000", "161844.633000", "161844.636000", "161844.638000", "161844.640000", "161844.643000", "161844.645000", "161844.648000", "161844.650000", "161844.653000", "161844.655000", "161844.658000", "161844.660000", "161844.663000", "161844.665000", "161844.668000", "161844.670000", "161844.672000", "161844.675000", "161844.677000", "161844.680000", "161844.682000", "161844.685000", "161844.687000", "161844.690000", "161904.623000", "161904.626000", "161904.628000", "161904.630000", "161904.633000", "161904.635000", "161904.638000", "161904.640000", "161904.643000", "161904.645000", "161904.648000", "161904.656000", "161904.659000", "161904.661000", "161904.664000", "161904.666000", "161904.669000", "161904.671000", "161904.674000", "161904.676000", "161904.679000", "161904.681000", "161904.684000", "161904.686000", "161904.689000", "161904.691000", "161904.693000", "161904.696000", "161904.701000", "161904.703000", "161904.705000", "161904.708000", "161907.184000", "161907.186000", "161907.189000", "161907.191000", "161907.194000"], "InstanceCreationTime": ["161424.615000", "161424.618000", "161424.622000", "161424.624000", "161424.627000", "161424.629000", "161424.632000", "161424.634000", "161424.636000", "161424.639000", "161424.641000", "161424.644000", "161424.646000", "161424.654000", "161424.657000", "161424.659000", "161424.662000", "161424.664000", "161424.667000", "161424.669000", "161424.672000", "161424.674000", "161424.677000", "161424.679000", "161424.682000", "161424.684000", "161424.686000", "161424.689000", "161424.691000", "161424.694000", "161424.696000", "161424.699000", "161424.701000", "161424.704000", "161424.706000", "161424.708000", "161424.711000", "161424.713000", "161424.716000", "161424.718000", "161424.721000", "161424.723000", "161424.725000", "161424.728000", "161424.730000", "161424.733000", "161444.610000", "161444.613000", "161444.616000", "161444.618000", "161444.620000", "161444.623000", "161444.625000", "161444.628000", "161444.630000", "161444.632000", "161444.635000", "161444.637000", "161444.640000", "161444.642000", "161444.645000", "161444.647000", "161444.650000", "161444.652000", "161444.654000", "161444.657000", "161444.659000", "161444.662000", "161444.664000", "161444.667000", "161444.669000", "161444.672000", "161444.674000", "161444.676000", "161444.679000", "161444.681000", "161444.684000", "161444.686000", "161444.695000", "161504.610000", "161504.613000", "161504.619000", "161504.622000", "161504.624000", "161504.627000", "161504.629000", "161504.632000", "161504.634000", "161504.637000", "161504.639000", "161504.641000", "161504.644000", "161504.646000", "161504.649000", "161504.651000", "161504.654000", "161504.656000", "161504.658000", "161504.661000", "161504.663000", "161504.666000", "161504.668000", "161504.670000", "161504.673000", "161504.675000", "161504.678000", "161504.680000", "161504.683000", "161504.685000", "161504.688000", "161504.690000", "161504.693000", "161524.610000", "161524.613000", "161524.615000", "161524.618000", "161524.620000", "161524.623000", "161524.625000", "161524.628000", "161524.630000", "161524.632000", "161524.635000", "161524.637000", "161524.640000", "161524.642000", "161524.645000", "161524.647000", "161524.649000", "161524.652000", "161524.654000", "161524.657000", "161524.659000", "161524.662000", "161524.664000", "161524.666000", "161524.669000", "161524.671000", "161524.674000", "161524.676000", "161524.679000", "161524.681000", "161524.684000", "161524.686000", "161524.688000", "161544.611000", "161544.614000", "161544.616000", "161544.619000", "161544.621000", "161544.624000", "161544.626000", "161544.629000", "161544.632000", "161544.634000", "161544.636000", "161544.639000", "161544.641000", "161544.644000", "161544.646000", "161544.649000", "161544.651000", "161544.654000", "161544.656000", "161544.658000", "161544.661000", "161544.663000", "161544.666000", "161544.668000", "161544.671000", "161544.673000", "161544.676000", "161544.678000", "161544.681000", "161544.683000", "161544.685000", "161544.688000", "161604.610000", "161604.613000", "161604.616000", "161604.618000", "161604.621000", "161604.623000", "161604.626000", "161604.628000", "161604.630000", "161604.633000", "161604.635000", "161604.638000", "161604.640000", "161604.643000", "161604.645000", "161604.648000", "161604.650000", "161604.652000", "161604.655000", "161604.657000", "161604.661000", "161604.664000", "161604.666000", "161604.669000", "161604.671000", "161604.674000", "161604.676000", "161604.679000", "161604.681000", "161604.683000", "161604.686000", "161604.702000", "161604.704000", "161624.610000", "161624.613000", "161624.615000", "161624.618000", "161624.620000", "161624.623000", "161624.625000", "161624.628000", "161624.630000", "161624.632000", "161624.635000", "161624.637000", "161624.640000", "161624.642000", "161624.645000", "161624.647000", "161624.650000", "161624.652000", "161624.654000", "161624.657000", "161624.659000", "161624.662000", "161624.664000", "161624.667000", "161624.669000", "161624.672000", "161624.674000", "161624.677000", "161624.679000", "161624.681000", "161624.684000", "161624.686000", "161624.689000", "161644.610000", "161644.613000", "161644.615000", "161644.618000", "161644.621000", "161644.623000", "161644.626000", "161644.628000", "161644.630000", "161644.633000", "161644.635000", "161644.638000", "161644.640000", "161644.643000", "161644.645000", "161644.647000", "161644.650000", "161644.652000", "161644.655000", "161644.657000", "161644.660000", "161644.662000", "161644.665000", "161644.667000", "161644.669000", "161644.672000", "161644.674000", "161644.677000", "161644.679000", "161644.682000", "161644.684000", "161644.686000", "161644.689000", "161704.610000", "161704.613000", "161704.616000", "161704.618000", "161704.620000", "161704.623000", "161704.625000", "161704.628000", "161704.630000", "161704.633000", "161704.635000", "161704.638000", "161704.640000", "161704.643000", "161704.645000", "161704.648000", "161704.650000", "161704.652000", "161704.655000", "161704.657000", "161704.660000", "161704.662000", "161704.665000", "161704.667000", "161704.669000", "161704.672000", "161704.674000", "161704.677000", "161704.679000", "161704.682000", "161704.684000", "161704.687000", "161704.689000", "161724.611000", "161724.613000", "161724.616000", "161724.618000", "161724.621000", "161724.623000", "161724.626000", "161724.628000", "161724.630000", "161724.633000", "16