{"AcquisitionMatrixPE": 64, "AcquisitionNumber": 1, "AcquisitionTime": "13:15:47.030000", "BandwidthPerPixelPhaseEncode": 28.935, "BaseResolution": 64, "BodyPartExamined": "BRAIN", "CoilString": "HC2_4_6_7;SC", "ConsistencyInfo": "N4_VE11E_LATEST_20181129", "ConversionSoftware": "dcm2niix", "ConversionSoftwareVersion": "v1.0.20190902", "DerivedVendorReportedEchoSpacing": 0.000540003, "DeviceSerialNumber": "166182", "DwellTime": 3.4e-06, "EchoTime": 0.032, "EchoTrainLength": 64, "EffectiveEchoSpacing": 0.000540003, "FlipAngle": 40, "ImageOrientationPatientDICOM": [0.999898, 0.00752866, -0.012172, -0.00872597, 0.994796, -0.10151], "ImageType": ["ORIGINAL", "PRIMARY", "M", "ND", "NORM", "MOSAIC"], "ImagingFrequency": 123.256, "InPlanePhaseEncodingDirectionDICOM": "COL", "InstitutionAddress": "PEARSE_STREET_._City_District_IE_D2", "InstitutionName": "TCIN", "InstitutionalDepartmentName": "MRI", "MRAcquisitionType": "2D", "MagneticFieldStrength": 3, "Manufacturer": "Siemens", "ManufacturersModelName": "Prisma", "Modality": "MR", "MultibandAccelerationFactor": 4, "PartialFourier": 1, "PatientPosition": "HFS", "PercentPhaseFOV": 100, "PhaseEncodingDirection": "j-", "PhaseEncodingSteps": 64, "PhaseResolution": 1, "PixelBandwidth": 2300, "ProcedureStepDescription": "Rhodri_Head_BOLD", "ProtocolName": "cmrr_mbep2d_Pictures_AP_RDS", "PulseSequenceDetails": "%SiemensSeq%_ep2d_bold", "ReceiveCoilActiveElements": "HC2,4,6,7;SC", "ReceiveCoilName": "SpecialPurpose_4", "ReconMatrixPE": 64, "RefLinesPE": 12, "RepetitionTime": 0.61, "SAR": 0.373893, "ScanOptions": "FS", "ScanningSequence": "EP", "SequenceName": "_epfid2d1_64", "SequenceVariant": "SK", "SeriesDescription": "cmrr_mbep2d_Pictures_AP_RDS", "SeriesNumber": 5, "ShimSetting": [-3688, -7510, 3886, 1100, 51, -65, 160, -153], "SliceThickness": 3, "SliceTiming": [0.2625, 0, 0.33, 0.0675, 0.395, 0.1325, 0.46, 0.1975, 0.525, 0.2625, 0, 0.33, 0.0675, 0.395, 0.1325, 0.46, 0.1975, 0.525, 0.2625, 0, 0.33, 0.0675, 0.395, 0.1325, 0.46, 0.1975, 0.525, 0.2625, 0, 0.33, 0.0675, 0.395, 0.1325, 0.46, 0.1975, 0.525], "SoftwareVersions": "syngo_MR_E11", "SpacingBetweenSlices": 3.3, "StationName": "AWP166182", "TaskName": "pictures", "TotalReadoutTime": 0.0340202, "TxRefAmp": 241.718, "dcmmeta_affine": [[-2.999692678451538, -0.02617790177464485, -0.03743666410446167, 97.08718872070312], [-0.02258598990738392, 2.984388589859009, -0.3353007733821869, -95.08843231201172], [-0.03651606664061546, 0.304531455039978, 3.282707929611206, -90.22853088378906], [0.0, 0.0, 0.0, 1.0]], "dcmmeta_reorient_transform": [[0.0, -1.0, 0.0, 63.0], [1.0, 0.0, 0.0, 0.0], [0.0, 0.0, 1.0, 0.0], [0.0, 0.0, 0.0, 1.0]], "dcmmeta_shape": [64, 64, 36, 510], "dcmmeta_slice_dim": 2, "dcmmeta_version": 0.6, "global": {"const": {"AcquisitionMatrix": [64, 0, 0, 64], "AngioFlag": "N", "BitsAllocated": 16, "BitsStored": 12, "BodyPartExamined": "BRAIN", "Columns": 384, "EchoNumbers": 1, "EchoTime": 32.0, "EchoTrainLength": 64, "FlipAngle": 40.0, "HighBit": 11, "ImageOrientationPatient": [0.99989757530669, 0.00752866328127, -0.0121720222234, -0.0087259672052, 0.99479620014152, -0.1015104806428], "ImagePositionPatient": [-571.20034908769, -574.04398726399, -16.475451835368], "ImageType": ["ORIGINAL", "PRIMARY", "M", "ND", "NORM", "MOSAIC"], "ImagedNucleus": "1H", "ImagingFrequency": 123.25568, "InPlanePhaseEncodingDirection": "COL", "MRAcquisitionType": "2D", "MagneticFieldStrength": 3.0, "Manufacturer": "SIEMENS", "ManufacturerModelName": "Prisma", "Modality": "MR", "NumberOfAverages": 1.0, "NumberOfPhaseEncodingSteps": 64, "PercentPhaseFieldOfView": 100.0, "PercentSampling": 100.0, "PerformedProcedureStepStartTime": "130924.749000", "PhotometricInterpretation": "MONOCHROME2", "PixelBandwidth": 2300.0, "PixelRepresentation": 0, "PixelSpacing": [3.0, 3.0], "ProtocolName": "cmrr_mbep2d_Pictures_AP_RDS", "RepetitionTime": 610.0, "Rows": 384, "SAR": 0.37389289882071, "SamplesPerPixel": 1, "ScanOptions": "FS", "ScanningSequence": "EP", "SequenceName": "*epfid2d1_64", "SequenceVariant": "SK", "SeriesDescription": "cmrr_mbep2d_Pictures_AP_RDS", "SeriesNumber": 5, "SeriesTime": "131614.095000", "SliceLocation": -81.195553815614, "SliceThickness": 3.0, "SmallestImagePixelValue": 0, "SoftwareVersions": "syngo MR E11", "SpacingBetweenSlices": 3.2999999673693, "SpecificCharacterSet": "ISO_IR 100", "StudyID": "2", "StudyTime": "130924.709000", "TransmitCoilName": "Body", "VariableFlipAngleFlag": "N", "WindowCenterWidthExplanation": "Algo1"}, "slices": {}}, "time": {"samples": {"AcquisitionNumber": [1, 2, 3, 4, 5, 6, 7, 8, 9, 10, 11, 12, 13, 14, 15, 16, 17, 18, 19, 20, 21, 22, 23, 24, 25, 26, 27, 28, 29, 30, 31, 32, 33, 34, 35, 36, 37, 38, 39, 40, 41, 42, 43, 44, 45, 46, 47, 48, 49, 50, 51, 52, 53, 54, 55, 56, 57, 58, 59, 60, 61, 62, 63, 64, 65, 66, 67, 68, 69, 70, 71, 72, 73, 74, 75, 76, 77, 78, 79, 80, 81, 82, 83, 84, 85, 86, 87, 88, 89, 90, 91, 92, 93, 94, 95, 96, 97, 98, 99, 100, 101, 102, 103, 104, 105, 106, 107, 108, 109, 110, 111, 112, 113, 114, 115, 116, 117, 118, 119, 120, 121, 122, 123, 124, 125, 126, 127, 128, 129, 130, 131, 132, 133, 134, 135, 136, 137, 138, 139, 140, 141, 142, 143, 144, 145, 146, 147, 148, 149, 150, 151, 152, 153, 154, 155, 156, 157, 158, 159, 160, 161, 162, 163, 164, 165, 166, 167, 168, 169, 170, 171, 172, 173, 174, 175, 176, 177, 178, 179, 180, 181, 182, 183, 184, 185, 186, 187, 188, 189, 190, 191, 192, 193, 194, 195, 196, 197, 198, 199, 200, 201, 202, 203, 204, 205, 206, 207, 208, 209, 210, 211, 212, 213, 214, 215, 216, 217, 218, 219, 220, 221, 222, 223, 224, 225, 226, 227, 228, 229, 230, 231, 232, 233, 234, 235, 236, 237, 238, 239, 240, 241, 242, 243, 244, 245, 246, 247, 248, 249, 250, 251, 252, 253, 254, 255, 256, 257, 258, 259, 260, 261, 262, 263, 264, 265, 266, 267, 268, 269, 270, 271, 272, 273, 274, 275, 276, 277, 278, 279, 280, 281, 282, 283, 284, 285, 286, 287, 288, 289, 290, 291, 292, 293, 294, 295, 296, 297, 298, 299, 300, 301, 302, 303, 304, 305, 306, 307, 308, 309, 310, 311, 312, 313, 314, 315, 316, 317, 318, 319, 320, 321, 322, 323, 324, 325, 326, 327, 328, 329, 330, 331, 332, 333, 334, 335, 336, 337, 338, 339, 340, 341, 342, 343, 344, 345, 346, 347, 348, 349, 350, 351, 352, 353, 354, 355, 356, 357, 358, 359, 360, 361, 362, 363, 364, 365, 366, 367, 368, 369, 370, 371, 372, 373, 374, 375, 376, 377, 378, 379, 380, 381, 382, 383, 384, 385, 386, 387, 388, 389, 390, 391, 392, 393, 394, 395, 396, 397, 398, 399, 400, 401, 402, 403, 404, 405, 406, 407, 408, 409, 410, 411, 412, 413, 414, 415, 416, 417, 418, 419, 420, 421, 422, 423, 424, 425, 426, 427, 428, 429, 430, 431, 432, 433, 434, 435, 436, 437, 438, 439, 440, 441, 442, 443, 444, 445, 446, 447, 448, 449, 450, 451, 452, 453, 454, 455, 456, 457, 458, 459, 460, 461, 462, 463, 464, 465, 466, 467, 468, 469, 470, 471, 472, 473, 474, 475, 476, 477, 478, 479, 480, 481, 482, 483, 484, 485, 486, 487, 488, 489, 490, 491, 492, 493, 494, 495, 496, 497, 498, 499, 500, 501, 502, 503, 504, 505, 506, 507, 508, 509, 510], "AcquisitionTime": ["131547.030000", "131547.640000", "131548.250000", "131548.860000", "131549.470000", "131550.080000", "131550.690000", "131551.300000", "131551.910000", "131552.520000", "131553.130000", "131553.740000", "131554.350000", "131554.960000", "131555.570000", "131556.180000", "131556.790000", "131557.400000", "131558.010000", "131558.620000", "131559.230000", "131559.840000", "131600.450000", "131601.060000", "131601.670000", "131602.280000", "131602.890000", "131603.500000", "131604.110000", "131604.720000", "131605.330000", "131605.940000", "131606.550000", "131607.160000", "131607.770000", "131608.380000", "131608.990000", "131609.600000", "131610.210000", "131610.820000", "131611.430000", "131612.040000", "131612.650000", "131613.260000", "131613.870000", "131614.480000", "131615.090000", "131615.700000", "131616.310000", "131616.920000", "131617.530000", "131618.140000", "131618.750000", "131619.360000", "131619.970000", "131620.580000", "131621.190000", "131621.800000", "131622.410000", "131623.020000", "131623.630000", "131624.240000", "131624.850000", "131625.460000", "131626.070000", "131626.680000", "131627.290000", "131627.900000", "131628.510000", "131629.120000", "131629.730000", "131630.340000", "131630.950000", "131631.560000", "131632.170000", "131632.780000", "131633.390000", "131634.000000", "131634.610000", "131635.220000", "131635.830000", "131636.440000", "131637.050000", "131637.660000", "131638.270000", "131638.880000", "131639.490000", "131640.100000", "131640.710000", "131641.320000", "131641.930000", "131642.540000", "131643.150000", "131643.760000", "131644.370000", "131644.980000", "131645.590000", "131646.200000", "131646.810000", "131647.420000", "131648.030000", "131648.640000", "131649.250000", "131649.860000", "131650.470000", "131651.080000", "131651.690000", "131652.300000", "131652.910000", "131653.520000", "131654.130000", "131654.740000", "131655.350000", "131655.960000", "131656.570000", "131657.180000", "131657.790000", "131658.400000", "131659.010000", "131659.620000", "131700.230000", "131700.840000", "131701.450000", "131702.060000", "131702.670000", "131703.280000", "131703.890000", "131704.500000", "131705.110000", "131705.720000", "131706.330000", "131706.940000", "131707.550000", "131708.160000", "131708.770000", "131709.380000", "131709.990000", "131710.600000", "131711.210000", "131711.820000", "131712.430000", "131713.040000", "131713.650000", "131714.260000", "131714.870000", "131715.480000", "131716.090000", "131716.700000", "131717.310000", "131717.920000", "131718.530000", "131719.140000", "131719.750000", "131720.360000", "131720.970000", "131721.580000", "131722.190000", "131722.800000", "131723.410000", "131724.020000", "131724.630000", "131725.240000", "131725.850000", "131726.460000", "131727.070000", "131727.680000", "131728.290000", "131728.900000", "131729.510000", "131730.120000", "131730.730000", "131731.340000", "131731.950000", "131732.560000", "131733.170000", "131733.780000", "131734.390000", "131735.000000", "131735.610000", "131736.220000", "131736.830000", "131737.440000", "131738.050000", "131738.660000", "131739.270000", "131739.880000", "131740.490000", "131741.100000", "131741.710000", "131742.320000", "131742.930000", "131743.540000", "131744.150000", "131744.760000", "131745.370000", "131745.980000", "131746.590000", "131747.200000", "131747.810000", "131748.420000", "131749.030000", "131749.640000", "131750.250000", "131750.860000", "131751.470000", "131752.080000", "131752.690000", "131753.300000", "131753.910000", "131754.520000", "131755.130000", "131755.740000", "131756.350000", "131756.960000", "131757.570000", "131758.180000", "131758.790000", "131759.400000", "131800.010000", "131800.620000", "131801.230000", "131801.840000", "131802.450000", "131803.060000", "131803.670000", "131804.280000", "131804.890000", "131805.500000", "131806.110000", "131806.720000", "131807.330000", "131807.940000", "131808.550000", "131809.160000", "131809.770000", "131810.380000", "131810.990000", "131811.600000", "131812.210000", "131812.820000", "131813.430000", "131814.040000", "131814.650000", "131815.260000", "131815.870000", "131816.480000", "131817.090000", "131817.700000", "131818.310000", "131818.920000", "131819.530000", "131820.140000", "131820.750000", "131821.360000", "131821.970000", "131822.580000", "131823.190000", "131823.800000", "131824.410000", "131825.020000", "131825.630000", "131826.240000", "131826.850000", "131827.460000", "131828.070000", "131828.680000", "131829.290000", "131829.900000", "131830.510000", "131831.120000", "131831.730000", "131832.340000", "131832.950000", "131833.560000", "131834.170000", "131834.780000", "131835.390000", "131836.000000", "131836.610000", "131837.220000", "131837.830000", "131838.440000", "131839.050000", "131839.660000", "131840.270000", "131840.880000", "131841.490000", "131842.100000", "131842.710000", "131843.320000", "131843.930000", "131844.540000", "131845.150000", "131845.760000", "131846.370000", "131846.980000", "131847.590000", "131848.200000", "131848.810000", "131849.420000", "131850.030000", "131850.640000", "131851.250000", "131851.860000", "131852.470000", "131853.080000", "131853.690000", "131854.300000", "131854.910000", "131855.520000", "131856.130000", "131856.740000", "131857.350000", "131857.960000", "131858.570000", "131859.180000", "131859.790000", "131900.400000", "131901.010000", "131901.620000", "131902.230000", "131902.840000", "131903.450000", "131904.060000", "131904.670000", "131905.280000", "131905.890000", "131906.500000", "131907.110000", "131907.720000", "131908.330000", "131908.940000", "131909.550000", "131910.160000", "131910.770000", "131911.380000", "131911.990000", "131912.600000", "131913.210000", "131913.820000", "131914.430000", "131915.040000", "131915.650000", "131916.260000", "131916.870000", "131917.480000", "131918.090000", "131918.700000", "131919.310000", "131919.920000", "131920.530000", "131921.140000", "131921.750000", "131922.360000", "131922.970000", "131923.580000", "131924.190000", "131924.800000", "131925.410000", "131926.020000", "131926.630000", "131927.240000", "131927.850000", "131928.460000", "131929.070000", "131929.680000", "131930.290000", "131930.900000", "131931.510000", "131932.120000", "131932.730000", "131933.340000", "131933.950000", "131934.560000", "131935.170000", "131935.780000", "131936.390000", "131937.000000", "131937.610000", "131938.220000", "131938.830000", "131939.440000", "131940.050000", "131940.660000", "131941.270000", "131941.880000", "131942.490000", "131943.100000", "131943.710000", "131944.320000", "131944.930000", "131945.540000", "131946.150000", "131946.760000", "131947.370000", "131947.980000", "131948.590000", "131949.200000", "131949.810000", "131950.420000", "131951.030000", "131951.640000", "131952.250000", "131952.860000", "131953.470000", "131954.080000", "131954.690000", "131955.300000", "131955.910000", "131956.520000", "131957.130000", "131957.740000", "131958.350000", "131958.960000", "131959.570000", "132000.180000", "132000.790000", "132001.400000", "132002.010000", "132002.620000", "132003.230000", "132003.840000", "132004.450000", "132005.060000", "132005.670000", "132006.280000", "132006.890000", "132007.500000", "132008.110000", "132008.720000", "132009.330000", "132009.940000", "132010.550000", "132011.160000", "132011.770000", "132012.380000", "132012.990000", "132013.600000", "132014.210000", "132014.820000", "132015.430000", "132016.040000", "132016.650000", "132017.260000", "132017.870000", "132018.480000", "132019.090000", "132019.700000", "132020.310000", "132020.920000", "132021.530000", "132022.140000", "132022.750000", "132023.360000", "132023.970000", "132024.580000", "132025.190000", "132025.800000", "132026.410000", "132027.020000", "132027.630000", "132028.240000", "132028.850000", "132029.460000", "132030.070000", "132030.680000", "132031.290000", "132031.900000", "132032.510000", "132033.120000", "132033.730000", "132034.340000", "132034.950000", "132035.560000", "132036.170000", "132036.780000", "132037.390000", "132038.000000", "132038.610000", "132039.220000", "132039.830000", "132040.440000", "132041.050000", "132041.660000", "132042.270000", "132042.880000", "132043.490000", "132044.100000", "132044.710000", "132045.320000", "132045.930000", "132046.540000", "132047.150000", "132047.760000", "132048.370000", "132048.980000", "132049.590000", "132050.200000", "132050.810000", "132051.420000", "132052.030000", "132052.640000", "132053.250000", "132053.860000", "132054.470000", "132055.080000", "132055.690000", "132056.300000", "132056.910000", "132057.520000"], "ContentTime": ["131614.126000", "131614.129000", "131614.132000", "131614.134000", "131614.137000", "131614.147000", "131614.149000", "131614.152000", "131614.154000", "131614.157000", "131614.160000", "131614.163000", "131614.166000", "131614.168000", "131614.171000", "131614.173000", "131614.176000", "131614.178000", "131614.181000", "131614.183000", "131614.186000", "131614.189000", "131614.191000", "131614.194000", "131614.196000", "131614.198000", "131614.202000", "131614.204000", "131614.207000", "131614.209000", "131614.212000", "131614.214000", "131614.217000", "131614.219000", "131614.222000", "131614.224000", "131614.227000", "131614.230000", "131614.232000", "131614.234000", "131614.237000", "131614.239000", "131614.242000", "131614.244000", "131634.093000", "131634.096000", "131634.098000", "131634.101000", "131634.103000", "131634.106000", "131634.108000", "131634.110000", "131634.113000", "131634.115000", "131634.117000", "131634.120000", "131634.122000", "131634.125000", "131634.127000", "131634.129000", "131634.137000", "131634.140000", "131634.142000", "131634.144000", "131634.147000", "131634.149000", "131634.151000", "131634.154000", "131634.156000", "131634.158000", "131634.161000", "131634.163000", "131634.166000", "131634.169000", "131634.171000", "131634.174000", "131634.176000", "131654.093000", "131654.096000", "131654.098000", "131654.101000", "131654.103000", "131654.113000", "131654.115000", "131654.118000", "131654.120000", "131654.122000", "131654.125000", "131654.127000", "131654.129000", "131654.132000", "131654.134000", "131654.137000", "131654.139000", "131654.141000", "131654.144000", "131654.146000", "131654.148000", "131654.151000", "131654.153000", "131654.156000", "131654.158000", "131654.160000", "131654.163000", "131654.165000", "131654.168000", "131654.170000", "131654.173000", "131654.175000", "131714.092000", "131714.118000", "131714.120000", "131714.123000", "131714.125000", "131714.127000", "131714.130000", "131714.132000", "131714.135000", "131714.138000", "131714.140000", "131714.142000", "131714.145000", "131714.147000", "131714.150000", "131714.152000", "131714.154000", "131714.157000", "131714.159000", "131714.162000", "131714.164000", "131714.167000", "131714.169000", "131714.171000", "131714.174000", "131714.176000", "131714.179000", "131714.181000", "131714.184000", "131714.186000", "131714.189000", "131714.191000", "131714.194000", "131734.092000", "131734.103000", "131734.105000", "131734.108000", "131734.110000", "131734.112000", "131734.115000", "131734.118000", "131734.120000", "131734.122000", "131734.125000", "131734.127000", "131734.130000", "131734.132000", "131734.134000", "131734.137000", "131734.139000", "131734.141000", "131734.144000", "131734.146000", "131734.149000", "131734.151000", "131734.153000", "131734.156000", "131734.158000", "131734.161000", "131734.163000", "131734.165000", "131734.168000", "131734.171000", "131734.173000", "131734.176000", "131734.178000", "131754.093000", "131754.096000", "131754.098000", "131754.101000", "131754.103000", "131754.105000", "131754.108000", "131754.110000", "131754.113000", "131754.115000", "131754.117000", "131754.120000", "131754.122000", "131754.125000", "131754.127000", "131754.130000", "131754.132000", "131754.134000", "131754.137000", "131754.139000", "131754.141000", "131754.144000", "131754.146000", "131754.149000", "131754.151000", "131754.153000", "131754.156000", "131754.158000", "131754.161000", "131754.163000", "131754.165000", "131754.168000", "131754.170000", "131814.093000", "131814.096000", "131814.098000", "131814.101000", "131814.104000", "131814.106000", "131814.108000", "131814.111000", "131814.113000", "131814.116000", "131814.118000", "131814.120000", "131814.123000", "131814.125000", "131814.128000", "131814.130000", "131814.132000", "131814.135000", "131814.137000", "131814.140000", "131814.142000", "131814.144000", "131814.147000", "131814.149000", "131814.152000", "131814.154000", "131814.156000", "131814.159000", "131814.161000", "131814.163000", "131814.166000", "131814.168000", "131814.171000", "131834.093000", "131834.096000", "131834.098000", "131834.102000", "131834.104000", "131834.132000", "131834.135000", "131834.137000", "131834.148000", "131834.151000", "131834.153000", "131834.156000", "131834.158000", "131834.161000", "131834.163000", "131834.166000", "131834.168000", "131834.171000", "131834.173000", "131834.181000", "131834.183000", "131834.186000", "131834.188000", "131834.191000", "131834.193000", "131834.196000", "131834.199000", "131834.202000", "131834.204000", "131834.207000", "131834.210000", "131834.212000", "131854.093000", "131854.096000", "131854.098000", "131854.101000", "131854.103000", "131854.106000", "131854.108000", "131854.110000", "131854.113000", "131854.115000", "131854.118000", "131854.120000", "131854.122000", "131854.125000", "131854.127000", "131854.130000", "131854.132000", "131854.135000", "131854.137000", "131854.139000", "131854.142000", "131854.144000", "131854.146000", "131854.149000", "131854.151000", "131854.154000", "131854.156000", "131854.158000", "131854.161000", "131854.163000", "131854.166000", "131854.168000", "131854.171000", "131914.093000", "131914.096000", "131914.098000", "131914.101000", "131914.103000", "131914.106000", "131914.108000", "131914.110000", "131914.113000", "131914.115000", "131914.117000", "131914.120000", "131914.122000", "131914.133000", "131914.135000", "131914.138000", "131914.140000", "131914.142000", "131914.145000", "131914.147000", "131914.150000", "131914.152000", "131914.154000", "131914.157000", "131914.159000", "131914.162000", "131914.164000", "131914.166000", "131914.169000", "131914.171000", "131914.173000", "131914.176000", "131914.178000", "131934.092000", "131934.095000", "131934.097000", "131934.100000", "131934.102000", "131934.122000", "131934.124000", "131934.127000", "131934.129000", "131934.132000", "131934.134000", "131934.136000", "131934.139000", "131934.141000", "131934.144000", "131934.146000", "131934.148000", "131934.151000", "131934.153000", "131934.156000", "131934.158000", "131934.161000", "131934.163000", "131934.165000", "131934.168000", "131934.170000", "131934.172000", "131934.175000", "131934.177000", "131934.180000", "131934.182000", "131934.184000", "131934.187000", "131954.092000", "131954.095000", "131954.097000", "131954.100000", "131954.102000", "131954.105000", "131954.107000", "131954.110000", "131954.112000", "131954.115000", "131954.117000", "131954.120000", "131954.122000", "131954.125000", "131954.128000", "131954.130000", "131954.132000", "131954.135000", "131954.137000", "131954.140000", "131954.142000", "131954.144000", "131954.147000", "131954.150000", "131954.152000", "131954.155000", "131954.157000", "131954.159000", "131954.162000", "131954.164000", "131954.167000", "131954.169000", "132014.093000", "132014.096000", "132014.099000", "132014.101000", "132014.103000", "132014.106000", "132014.108000", "132014.111000", "132014.113000", "132014.115000", "132014.118000", "132014.120000", "132014.123000", "132014.125000", "132014.127000", "132014.130000", "132014.132000", "132014.134000", "132014.137000", "132014.139000", "132014.142000", "132014.144000", "132014.147000", "132014.149000", "132014.151000", "132014.154000", "132014.156000", "132014.159000", "132014.161000", "132014.164000", "132014.166000", "132014.168000", "132014.171000", "132034.093000", "132034.096000", "132034.098000", "132034.101000", "132034.103000", "132034.106000", "132034.108000", "132034.110000", "132034.113000", "132034.115000", "132034.117000", "132034.120000", "132034.122000", "132034.125000", "132034.127000", "132034.129000", "132034.132000", "132034.134000", "132034.136000", "132034.139000", "132034.141000", "132034.144000", "132034.146000", "132034.148000", "132034.151000", "132034.153000", "132034.155000", "132034.158000", "132034.160000", "132034.163000", "132034.165000", "132034.168000", "132034.170000", "132054.093000", "132054.096000", "132054.098000", "132054.101000", "132054.103000", "132054.105000", "132054.108000", "132054.110000", "132054.113000", "132054.115000", "132054.117000", "132054.120000", "132054.122000", "132054.125000", "132054.127000", "132054.129000", "132054.132000", "132054.134000", "132054.137000", "132054.139000", "132054.141000", "132054.144000", "132054.146000", "132054.149000", "132054.151000", "132054.153000", "132054.156000", "132054.158000", "132054.161000", "132054.163000", "132054.165000", "132054.168000", "132054.170000", "132058.141000", "132058.144000", "132058.146000", "132058.149000", "132058.151000", "132058.154000", "132058.156000"], "InstanceCreationTime": ["131614.126000", "131614.129000", "131614.132000", "131614.134000", "131614.137000", "131614.147000", "131614.149000", "131614.152000", "131614.154000", "131614.157000", "131614.160000", "131614.163000", "131614.166000", "131614.168000", "131614.171000", "131614.173000", "131614.176000", "131614.178000", "131614.181000", "131614.183000", "131614.186000", "131614.189000", "131614.191000", "131614.194000", "131614.196000", "131614.198000", "131614.202000", "131614.204000", "131614.207000", "131614.209000", "131614.212000", "131614.214000", "131614.217000", "131614.219000", "131614.222000", "131614.224000", "131614.227000", "131614.230000", "131614.232000", "131614.234000", "131614.237000", "131614.239000", "131614.242000", "131614.244000", "131634.093000", "131634.096000", "131634.098000", "131634.101000", "131634.103000", "131634.106000", "131634.108000", "131634.110000", "131634.113000", "131634.115000", "131634.117000", "131634.120000", "131634.122000", "131634.125000", "131634.127000", "131634.129000", "131634.137000", "131634.140000", "131634.142000", "131634.144000", "131634.147000", "131634.149000", "131634.151000", "131634.154000", "131634.156000", "131634.158000", "131634.161000", "131634.163000", "131634.166000", "131634.169000", "131634.171000", "131634.174000", "131634.176000", "131654.093000", "131654.096000", "131654.098000", "131654.101000", "131654.103000", "131654.113000", "131654.115000", "131654.118000", "131654.120000", "131654.122000", "131654.125000", "131654.127000", "131654.129000", "131654.132000", "131654.134000", "131654.137000", "131654.139000", "131654.141000", "131654.144000", "131654.146000", "131654.148000", "131654.151000", "131654.153000", "131654.156000", "131654.158000", "131654.160000", "131654.163000", "131654.165000", "131654.168000", "131654.170000", "131654.173000", "131654.175000", "131714.092000", "131714.118000", "131714.120000", "131714.123000", "131714.125000", "131714.127000", "131714.130000", "131714.132000", "131714.135000", "131714.138000", "131714.140000", "131714.142000", "131714.145000", "131714.147000", "131714.150000", "131714.152000", "131714.154000", "131714.157000", "131714.159000", "131714.162000", "131714.164000", "131714.167000", "131714.169000", "131714.171000", "131714.174000", "131714.176000", "131714.179000", "131714.181000", "131714.184000", "131714.186000", "131714.189000", "131714.191000", "131714.194000", "131734.092000", "131734.103000", "131734.105000", "131734.108000", "131734.110000", "131734.112000", "131734.115000", "131734.118000", "131734.120000", "131734.122000", "131734.125000", "131734.127000", "131734.130000", "131734.132000", "131734.134000", "131734.137000", "131734.139000", "131734.141000", "131734.144000", "131734.146000", "131734.149000", "131734.151000", "131734.153000", "131734.156000", "131734.158000", "131734.161000", "131734.163000", "131734.165000", "131734.168000", "131734.171000", "131734.173000", "131734.176000", "131734.178000", "131754.093000", "131754.096000", "131754.098000", "131754.101000", "131754.103000", "131754.105000", "131754.108000", "131754.110000", "131754.113000", "131754.115000", "131754.117000", "131754.120000", "131754.122000", "131754.125000", "131754.127000", "131754.130000", "131754.132000", "131754.134000", "131754.137000", "131754.139000", "131754.141000", "131754.144000", "131754.146000", "131754.149000", "131754.151000", "131754.153000", "131754.156000", "131754.158000", "131754.161000", "131754.163000", "131754.165000", "131754.168000", "131754.170000", "131814.093000", "131814.096000", "131814.098000", "131814.101000", "131814.104000", "131814.106000", "131814.108000", "131814.111000", "131814.113000", "131814.116000", "131814.118000", "131814.120000", "131814.123000", "131814.125000", "131814.128000", "131814.130000", "131814.132000", "131814.135000", "131814.137000", "131814.140000", "131814.142000", "131814.144000", "131814.147000", "131814.149000", "131814.152000", "131814.154000", "131814.156000", "131814.159000", "131814.161000", "131814.163000", "131814.166000", "131814.168000", "131814.171000", "131834.093000", "131834.096000", "131834.098000", "131834.102000", "131834.104000", "131834.132000", "131834.135000", "131834.137000", "131834.148000", "131834.151000", "131834.153000", "131834.156000", "131834.158000", "131834.161000", "131834.163000", "131834.166000", "131834.168000", "131834.171000", "131834.173000", "131834.181000", "131834.183000", "131834.186000", "131834.188000", "131834.191000", "131834.193000", "131834.196000", "131834.199000", "131834.202000", "131834.204000", "131834.207000", "131834.210000", "131834.212000", "131854.093000", "131854.096000", "131854.098000", "131854.101000", "131854.103000", "131854.106000", "131854.108000", "131854.110000", "131854.113000", "131854.115000", "131854.118000", "131854.120000", "131854.122000", "131854.125000", "131854.127000", "131854.130000", "131854.132000", "131854.135000", "131854.137000", "131854.139000", "131854.142000", "131854.144000", "131854.146000", "131854.149000", "131854.151000", "131854.154000", "131854.156000", "131854.158000", "131854.161000", "131854.163000", "131854.166000", "131854.168000", "131854.171000", "131914.093000", "131914.096000", "131914.098000", "131914.101000", "131914.103000", "131914.106000", "131914.108000", "131914.110000", "131914.113000", "131914.115000", "131914.117000", "131914.120000", "131914.122000", "131914.133000", "131914.135000", "131914.138000", "131914.140000", "131914.142000", "131914.145000", "131914.147000", "131914.150000", "131914.152000", "131914.154000", "131914