{"AcquisitionMatrixPE": 64, "AcquisitionNumber": 1, "AcquisitionTime": "12:34:53.717500", "BandwidthPerPixelPhaseEncode": 28.935, "BaseResolution": 64, "BodyPartExamined": "BRAIN", "CoilString": "HC2_4_6_7", "ConsistencyInfo": "N4_VE11E_LATEST_20181129", "ConversionSoftware": "dcm2niix", "ConversionSoftwareVersion": "v1.0.20190902", "DerivedVendorReportedEchoSpacing": 0.000540003, "DeviceSerialNumber": "166182", "DwellTime": 3.4e-06, "EchoTime": 0.032, "EchoTrainLength": 64, "EffectiveEchoSpacing": 0.000540003, "FlipAngle": 40, "ImageOrientationPatientDICOM": [0.996823, -0.0760068, -0.0237879, 0.0695299, 0.976188, -0.205481], "ImageType": ["ORIGINAL", "PRIMARY", "M", "ND", "NORM", "MOSAIC"], "ImagingFrequency": 123.255, "InPlanePhaseEncodingDirectionDICOM": "COL", "InstitutionAddress": "PEARSE_STREET_._City_District_IE_D2", "InstitutionName": "TCIN", "InstitutionalDepartmentName": "MRI", "MRAcquisitionType": "2D", "MagneticFieldStrength": 3, "Manufacturer": "Siemens", "ManufacturersModelName": "Prisma", "Modality": "MR", "MultibandAccelerationFactor": 4, "PartialFourier": 1, "PatientPosition": "HFS", "PercentPhaseFOV": 100, "PhaseEncodingDirection": "j-", "PhaseEncodingSteps": 64, "PhaseResolution": 1, "PixelBandwidth": 2300, "ProcedureStepDescription": "Rhodri_Head_BOLD", "ProtocolName": "cmrr_mbep2d_Pictures_AP_RDS", "PulseSequenceDetails": "%SiemensSeq%_ep2d_bold", "ReceiveCoilActiveElements": "HC2,4,6,7", "ReceiveCoilName": "HeadNeck_64", "ReconMatrixPE": 64, "RefLinesPE": 12, "RepetitionTime": 0.61, "SAR": 0.241721, "ScanOptions": "FS", "ScanningSequence": "EP", "SequenceName": "_epfid2d1_64", "SequenceVariant": "SK", "SeriesDescription": "cmrr_mbep2d_Pictures_AP_RDS", "SeriesNumber": 10, "ShimSetting": [-3634, -7401, 3943, 814, -18, 439, -248, -63], "SliceThickness": 3, "SliceTiming": [0.2625, 0, 0.33, 0.0675, 0.395, 0.1325, 0.46, 0.1975, 0.525, 0.2625, 0, 0.33, 0.0675, 0.395, 0.1325, 0.46, 0.1975, 0.525, 0.2625, 0, 0.33, 0.0675, 0.395, 0.1325, 0.46, 0.1975, 0.525, 0.2625, 0, 0.33, 0.0675, 0.395, 0.1325, 0.46, 0.1975, 0.525], "SoftwareVersions": "syngo_MR_E11", "SpacingBetweenSlices": 3.3, "StationName": "AWP166182", "TaskName": "pictures", "TotalReadoutTime": 0.0340202, "TxRefAmp": 257.028, "dcmmeta_affine": [[-2.9904704093933105, 0.2085895985364914, -0.12817008793354034, 91.80403900146484], [0.22802050411701202, 2.9285640716552734, -0.6704754829406738, -94.02254486083984], [-0.071363665163517, 0.6164432168006897, 3.2286274433135986, -117.56824493408203], [0.0, 0.0, 0.0, 1.0]], "dcmmeta_reorient_transform": [[0.0, -1.0, 0.0, 63.0], [1.0, 0.0, 0.0, 0.0], [0.0, 0.0, 1.0, 0.0], [0.0, 0.0, 0.0, 1.0]], "dcmmeta_shape": [64, 64, 36, 510], "dcmmeta_slice_dim": 2, "dcmmeta_version": 0.6, "global": {"const": {"AcquisitionMatrix": [64, 0, 0, 64], "AngioFlag": "N", "BitsAllocated": 16, "BitsStored": 12, "BodyPartExamined": "BRAIN", "Columns": 384, "EchoNumbers": 1, "EchoTime": 32.0, "EchoTrainLength": 64, "FlipAngle": 40.0, "HighBit": 11, "ImageOrientationPatient": [0.99682350372994, -0.076006833476, -0.0237878892824, 0.06952986372318, 0.9761880598034, -0.205481069561], "ImagePositionPatient": [-616.79479695433, -522.56398719465, 31.31677857016], "ImageType": ["ORIGINAL", "PRIMARY", "M", "ND", "NORM", "MOSAIC"], "ImagedNucleus": "1H", "ImagingFrequency": 123.255295, "InPlanePhaseEncodingDirection": "COL", "MRAcquisitionType": "2D", "MagneticFieldStrength": 3.0, "Manufacturer": "SIEMENS", "ManufacturerModelName": "Prisma", "Modality": "MR", "NumberOfAverages": 1.0, "NumberOfPhaseEncodingSteps": 64, "PercentPhaseFieldOfView": 100.0, "PercentSampling": 100.0, "PerformedProcedureStepStartTime": "115005.697000", "PhotometricInterpretation": "MONOCHROME2", "PixelBandwidth": 2300.0, "PixelRepresentation": 0, "PixelSpacing": [3.0, 3.0], "ProtocolName": "cmrr_mbep2d_Pictures_AP_RDS", "RepetitionTime": 610.0, "Rows": 384, "SAR": 0.24172054713782, "SamplesPerPixel": 1, "ScanOptions": "FS", "ScanningSequence": "EP", "SequenceName": "*epfid2d1_64", "SequenceVariant": "SK", "SeriesDescription": "cmrr_mbep2d_Pictures_AP_RDS", "SeriesNumber": 10, "SeriesTime": "123525.568000", "SliceLocation": -99.488113751156, "SliceThickness": 3.0, "SmallestImagePixelValue": 0, "SoftwareVersions": "syngo MR E11", "SpacingBetweenSlices": 3.3000000801908, "SpecificCharacterSet": "ISO_IR 100", "StudyID": "1", "StudyTime": "115005.504000", "TransmitCoilName": "Body", "VariableFlipAngleFlag": "N", "WindowCenterWidthExplanation": "Algo1"}, "slices": {}}, "time": {"samples": {"AcquisitionNumber": [1, 2, 3, 4, 5, 6, 7, 8, 9, 10, 11, 12, 13, 14, 15, 16, 17, 18, 19, 20, 21, 22, 23, 24, 25, 26, 27, 28, 29, 30, 31, 32, 33, 34, 35, 36, 37, 38, 39, 40, 41, 42, 43, 44, 45, 46, 47, 48, 49, 50, 51, 52, 53, 54, 55, 56, 57, 58, 59, 60, 61, 62, 63, 64, 65, 66, 67, 68, 69, 70, 71, 72, 73, 74, 75, 76, 77, 78, 79, 80, 81, 82, 83, 84, 85, 86, 87, 88, 89, 90, 91, 92, 93, 94, 95, 96, 97, 98, 99, 100, 101, 102, 103, 104, 105, 106, 107, 108, 109, 110, 111, 112, 113, 114, 115, 116, 117, 118, 119, 120, 121, 122, 123, 124, 125, 126, 127, 128, 129, 130, 131, 132, 133, 134, 135, 136, 137, 138, 139, 140, 141, 142, 143, 144, 145, 146, 147, 148, 149, 150, 151, 152, 153, 154, 155, 156, 157, 158, 159, 160, 161, 162, 163, 164, 165, 166, 167, 168, 169, 170, 171, 172, 173, 174, 175, 176, 177, 178, 179, 180, 181, 182, 183, 184, 185, 186, 187, 188, 189, 190, 191, 192, 193, 194, 195, 196, 197, 198, 199, 200, 201, 202, 203, 204, 205, 206, 207, 208, 209, 210, 211, 212, 213, 214, 215, 216, 217, 218, 219, 220, 221, 222, 223, 224, 225, 226, 227, 228, 229, 230, 231, 232, 233, 234, 235, 236, 237, 238, 239, 240, 241, 242, 243, 244, 245, 246, 247, 248, 249, 250, 251, 252, 253, 254, 255, 256, 257, 258, 259, 260, 261, 262, 263, 264, 265, 266, 267, 268, 269, 270, 271, 272, 273, 274, 275, 276, 277, 278, 279, 280, 281, 282, 283, 284, 285, 286, 287, 288, 289, 290, 291, 292, 293, 294, 295, 296, 297, 298, 299, 300, 301, 302, 303, 304, 305, 306, 307, 308, 309, 310, 311, 312, 313, 314, 315, 316, 317, 318, 319, 320, 321, 322, 323, 324, 325, 326, 327, 328, 329, 330, 331, 332, 333, 334, 335, 336, 337, 338, 339, 340, 341, 342, 343, 344, 345, 346, 347, 348, 349, 350, 351, 352, 353, 354, 355, 356, 357, 358, 359, 360, 361, 362, 363, 364, 365, 366, 367, 368, 369, 370, 371, 372, 373, 374, 375, 376, 377, 378, 379, 380, 381, 382, 383, 384, 385, 386, 387, 388, 389, 390, 391, 392, 393, 394, 395, 396, 397, 398, 399, 400, 401, 402, 403, 404, 405, 406, 407, 408, 409, 410, 411, 412, 413, 414, 415, 416, 417, 418, 419, 420, 421, 422, 423, 424, 425, 426, 427, 428, 429, 430, 431, 432, 433, 434, 435, 436, 437, 438, 439, 440, 441, 442, 443, 444, 445, 446, 447, 448, 449, 450, 451, 452, 453, 454, 455, 456, 457, 458, 459, 460, 461, 462, 463, 464, 465, 466, 467, 468, 469, 470, 471, 472, 473, 474, 475, 476, 477, 478, 479, 480, 481, 482, 483, 484, 485, 486, 487, 488, 489, 490, 491, 492, 493, 494, 495, 496, 497, 498, 499, 500, 501, 502, 503, 504, 505, 506, 507, 508, 509, 510], "AcquisitionTime": ["123453.717500", "123454.327500", "123454.937500", "123455.547500", "123456.157500", "123456.767500", "123457.377500", "123457.987500", "123458.597500", "123459.207500", "123459.817500", "123500.427500", "123501.037500", "123501.647500", "123502.257500", "123502.867500", "123503.477500", "123504.087500", "123504.697500", "123505.307500", "123505.917500", "123506.527500", "123507.137500", "123507.747500", "123508.357500", "123508.967500", "123509.577500", "123510.187500", "123510.797500", "123511.407500", "123512.017500", "123512.627500", "123513.237500", "123513.847500", "123514.457500", "123515.067500", "123515.677500", "123516.287500", "123516.897500", "123517.507500", "123518.117500", "123518.727500", "123519.337500", "123519.947500", "123520.557500", "123521.167500", "123521.777500", "123522.387500", "123522.997500", "123523.607500", "123524.217500", "123524.827500", "123525.437500", "123526.047500", "123526.657500", "123527.267500", "123527.877500", "123528.487500", "123529.097500", "123529.707500", "123530.317500", "123530.927500", "123531.537500", "123532.147500", "123532.757500", "123533.367500", "123533.977500", "123534.587500", "123535.197500", "123535.807500", "123536.417500", "123537.027500", "123537.637500", "123538.247500", "123538.857500", "123539.467500", "123540.077500", "123540.687500", "123541.297500", "123541.907500", "123542.517500", "123543.127500", "123543.737500", "123544.347500", "123544.957500", "123545.567500", "123546.177500", "123546.787500", "123547.397500", "123548.007500", "123548.617500", "123549.227500", "123549.837500", "123550.447500", "123551.057500", "123551.667500", "123552.277500", "123552.887500", "123553.497500", "123554.107500", "123554.717500", "123555.327500", "123555.937500", "123556.547500", "123557.157500", "123557.767500", "123558.377500", "123558.987500", "123559.597500", "123600.207500", "123600.817500", "123601.427500", "123602.037500", "123602.647500", "123603.257500", "123603.867500", "123604.477500", "123605.087500", "123605.697500", "123606.307500", "123606.917500", "123607.527500", "123608.137500", "123608.747500", "123609.357500", "123609.967500", "123610.577500", "123611.187500", "123611.797500", "123612.407500", "123613.017500", "123613.627500", "123614.237500", "123614.847500", "123615.457500", "123616.067500", "123616.677500", "123617.287500", "123617.897500", "123618.507500", "123619.117500", "123619.727500", "123620.337500", "123620.947500", "123621.557500", "123622.167500", "123622.777500", "123623.387500", "123623.997500", "123624.607500", "123625.217500", "123625.827500", "123626.437500", "123627.047500", "123627.657500", "123628.267500", "123628.877500", "123629.487500", "123630.097500", "123630.707500", "123631.317500", "123631.927500", "123632.537500", "123633.147500", "123633.757500", "123634.367500", "123634.977500", "123635.587500", "123636.197500", "123636.807500", "123637.417500", "123638.027500", "123638.637500", "123639.247500", "123639.857500", "123640.467500", "123641.077500", "123641.687500", "123642.297500", "123642.907500", "123643.517500", "123644.127500", "123644.737500", "123645.347500", "123645.957500", "123646.567500", "123647.177500", "123647.787500", "123648.397500", "123649.007500", "123649.617500", "123650.227500", "123650.837500", "123651.447500", "123652.057500", "123652.667500", "123653.277500", "123653.887500", "123654.497500", "123655.107500", "123655.717500", "123656.327500", "123656.937500", "123657.547500", "123658.157500", "123658.767500", "123659.377500", "123659.987500", "123700.597500", "123701.207500", "123701.817500", "123702.427500", "123703.037500", "123703.647500", "123704.257500", "123704.867500", "123705.477500", "123706.087500", "123706.697500", "123707.307500", "123707.917500", "123708.527500", "123709.137500", "123709.747500", "123710.357500", "123710.967500", "123711.577500", "123712.187500", "123712.797500", "123713.407500", "123714.017500", "123714.627500", "123715.237500", "123715.847500", "123716.457500", "123717.067500", "123717.677500", "123718.287500", "123718.897500", "123719.507500", "123720.117500", "123720.727500", "123721.337500", "123721.947500", "123722.557500", "123723.167500", "123723.777500", "123724.387500", "123724.997500", "123725.607500", "123726.217500", "123726.827500", "123727.437500", "123728.047500", "123728.657500", "123729.267500", "123729.877500", "123730.487500", "123731.097500", "123731.707500", "123732.317500", "123732.927500", "123733.537500", "123734.147500", "123734.757500", "123735.367500", "123735.977500", "123736.587500", "123737.197500", "123737.807500", "123738.417500", "123739.027500", "123739.637500", "123740.247500", "123740.857500", "123741.467500", "123742.077500", "123742.687500", "123743.297500", "123743.907500", "123744.517500", "123745.127500", "123745.737500", "123746.347500", "123746.957500", "123747.567500", "123748.177500", "123748.787500", "123749.397500", "123750.007500", "123750.617500", "123751.227500", "123751.837500", "123752.447500", "123753.057500", "123753.667500", "123754.277500", "123754.887500", "123755.497500", "123756.107500", "123756.717500", "123757.327500", "123757.937500", "123758.547500", "123759.157500", "123759.767500", "123800.377500", "123800.987500", "123801.597500", "123802.207500", "123802.817500", "123803.427500", "123804.037500", "123804.647500", "123805.257500", "123805.867500", "123806.477500", "123807.087500", "123807.697500", "123808.307500", "123808.917500", "123809.527500", "123810.137500", "123810.747500", "123811.357500", "123811.967500", "123812.577500", "123813.187500", "123813.797500", "123814.407500", "123815.017500", "123815.627500", "123816.237500", "123816.847500", "123817.457500", "123818.067500", "123818.677500", "123819.287500", "123819.897500", "123820.507500", "123821.117500", "123821.727500", "123822.337500", "123822.947500", "123823.557500", "123824.167500", "123824.777500", "123825.387500", "123825.997500", "123826.607500", "123827.217500", "123827.827500", "123828.437500", "123829.047500", "123829.657500", "123830.267500", "123830.877500", "123831.487500", "123832.097500", "123832.707500", "123833.317500", "123833.927500", "123834.537500", "123835.147500", "123835.757500", "123836.367500", "123836.977500", "123837.587500", "123838.197500", "123838.807500", "123839.417500", "123840.027500", "123840.637500", "123841.247500", "123841.857500", "123842.467500", "123843.077500", "123843.687500", "123844.297500", "123844.907500", "123845.517500", "123846.127500", "123846.737500", "123847.347500", "123847.957500", "123848.567500", "123849.177500", "123849.787500", "123850.397500", "123851.007500", "123851.617500", "123852.227500", "123852.837500", "123853.447500", "123854.057500", "123854.667500", "123855.277500", "123855.887500", "123856.497500", "123857.107500", "123857.717500", "123858.327500", "123858.937500", "123859.547500", "123900.157500", "123900.767500", "123901.377500", "123901.987500", "123902.597500", "123903.207500", "123903.817500", "123904.427500", "123905.037500", "123905.647500", "123906.257500", "123906.867500", "123907.477500", "123908.087500", "123908.697500", "123909.307500", "123909.917500", "123910.527500", "123911.137500", "123911.747500", "123912.357500", "123912.967500", "123913.577500", "123914.187500", "123914.797500", "123915.407500", "123916.017500", "123916.627500", "123917.237500", "123917.847500", "123918.457500", "123919.067500", "123919.677500", "123920.287500", "123920.897500", "123921.507500", "123922.117500", "123922.727500", "123923.337500", "123923.947500", "123924.557500", "123925.167500", "123925.777500", "123926.387500", "123926.997500", "123927.607500", "123928.217500", "123928.827500", "123929.437500", "123930.047500", "123930.657500", "123931.267500", "123931.877500", "123932.487500", "123933.097500", "123933.707500", "123934.317500", "123934.927500", "123935.537500", "123936.147500", "123936.757500", "123937.367500", "123937.977500", "123938.587500", "123939.197500", "123939.807500", "123940.417500", "123941.027500", "123941.637500", "123942.247500", "123942.857500", "123943.467500", "123944.077500", "123944.687500", "123945.297500", "123945.907500", "123946.517500", "123947.127500", "123947.737500", "123948.347500", "123948.957500", "123949.567500", "123950.177500", "123950.787500", "123951.397500", "123952.007500", "123952.617500", "123953.227500", "123953.837500", "123954.447500", "123955.057500", "123955.667500", "123956.277500", "123956.887500", "123957.497500", "123958.107500", "123958.717500", "123959.327500", "123959.937500", "124000.547500", "124001.157500", "124001.767500", "124002.377500", "124002.987500", "124003.597500", "124004.207500"], "ContentTime": ["123525.571000", "123525.574000", "123525.576000", "123525.579000", "123525.582000", "123525.584000", "123525.586000", "123525.590000", "123525.593000", "123525.595000", "123525.598000", "123525.600000", "123525.603000", "123525.605000", "123525.607000", "123525.610000", "123525.612000", "123525.615000", "123525.617000", "123525.620000", "123525.622000", "123525.624000", "123525.627000", "123525.629000", "123525.632000", "123525.634000", "123525.636000", "123525.639000", "123525.641000", "123525.644000", "123525.647000", "123525.649000", "123525.652000", "123525.654000", "123525.656000", "123525.665000", "123525.668000", "123525.670000", "123525.673000", "123525.675000", "123525.678000", "123525.680000", "123525.682000", "123525.685000", "123525.687000", "123525.690000", "123525.692000", "123525.694000", "123525.697000", "123525.699000", "123525.702000", "123545.567000", "123545.570000", "123545.573000", "123545.575000", "123545.577000", "123545.580000", "123545.582000", "123545.585000", "123545.587000", "123545.590000", "123545.592000", "123545.594000", "123545.597000", "123545.599000", "123545.602000", "123545.604000", "123545.606000", "123545.609000", "123545.611000", "123545.614000", "123545.616000", "123545.618000", "123545.627000", "123545.629000", "123545.631000", "123545.634000", "123545.636000", "123545.639000", "123545.641000", "123545.643000", "123545.646000", "123545.648000", "123545.651000", "123605.567000", "123605.570000", "123605.572000", "123605.575000", "123605.577000", "123605.580000", "123605.582000", "123605.584000", "123605.587000", "123605.589000", "123605.592000", "123605.594000", "123605.596000", "123605.599000", "123605.601000", "123605.604000", "123605.606000", "123605.609000", "123605.611000", "123605.613000", "123605.616000", "123605.618000", "123605.621000", "123605.623000", "123605.625000", "123605.628000", "123605.631000", "123605.633000", "123605.636000", "123605.638000", "123605.640000", "123605.643000", "123625.567000", "123625.570000", "123625.572000", "123625.575000", "123625.577000", "123625.580000", "123625.582000", "123625.585000", "123625.587000", "123625.589000", "123625.592000", "123625.595000", "123625.597000", "123625.600000", "123625.602000", "123625.604000", "123625.607000", "123625.609000", "123625.611000", "123625.614000", "123625.616000", "123625.619000", "123625.621000", "123625.624000", "123625.626000", "123625.628000", "123625.631000", "123625.633000", "123625.636000", "123625.638000", "123625.641000", "123625.643000", "123625.647000", "123645.566000", "123645.569000", "123645.571000", "123645.574000", "123645.576000", "123645.578000", "123645.581000", "123645.583000", "123645.586000", "123645.588000", "123645.591000", "123645.593000", "123645.596000", "123645.598000", "123645.600000", "123645.603000", "123645.605000", "123645.608000", "123645.610000", "123645.613000", "123645.615000", "123645.617000", "123645.620000", "123645.622000", "123645.625000", "123645.627000", "123645.629000", "123645.646000", "123645.648000", "123645.659000", "123645.661000", "123645.664000", "123645.666000", "123705.566000", "123705.569000", "123705.571000", "123705.574000", "123705.577000", "123705.579000", "123705.581000", "123705.584000", "123705.586000", "123705.589000", "123705.591000", "123705.594000", "123705.596000", "123705.599000", "123705.601000", "123705.603000", "123705.606000", "123705.608000", "123705.611000", "123705.613000", "123705.615000", "123705.618000", "123705.620000", "123705.623000", "123705.630000", "123705.632000", "123705.635000", "123705.637000", "123705.640000", "123705.642000", "123705.644000", "123705.647000", "123705.649000", "123725.566000", "123725.569000", "123725.572000", "123725.574000", "123725.577000", "123725.579000", "123725.582000", "123725.584000", "123725.587000", "123725.589000", "123725.592000", "123725.594000", "123725.596000", "123725.599000", "123725.601000", "123725.604000", "123725.606000", "123725.608000", "123725.611000", "123725.613000", "123725.616000", "123725.618000", "123725.620000", "123725.623000", "123725.625000", "123725.628000", "123725.630000", "123725.632000", "123725.635000", "123725.637000", "123725.639000", "123725.642000", "123725.644000", "123745.566000", "123745.569000", "123745.571000", "123745.574000", "123745.576000", "123745.579000", "123745.581000", "123745.584000", "123745.586000", "123745.589000", "123745.591000", "123745.593000", "123745.596000", "123745.598000", "123745.601000", "123745.603000", "123745.606000", "123745.608000", "123745.611000", "123745.614000", "123745.616000", "123745.618000", "123745.621000", "123745.623000", "123745.626000", "123745.628000", "123745.631000", "123745.633000", "123745.636000", "123745.638000", "123745.641000", "123745.643000", "123805.567000", "123805.570000", "123805.572000", "123805.575000", "123805.577000", "123805.579000", "123805.582000", "123805.584000", "123805.587000", "123805.589000", "123805.592000", "123805.594000", "123805.596000", "123805.599000", "123805.601000", "123805.604000", "123805.606000", "123805.608000", "123805.611000", "123805.613000", "123805.616000", "123805.618000", "123805.620000", "123805.623000", "123805.625000", "123805.627000", "123805.630000", "123805.632000", "123805.635000", "123805.638000", "123805.640000", "123805.643000", "123805.645000", "123825.567000", "123825.570000", "123825.572000", "123825.575000", "123825.577000", "123825.580000", "123825.582000", "123825.584000", "123825.587000", "123825.589000", "123825.591000", "123825.594000", "123825.596000", "123825.599000", "123825.601000", "123825.604000", "123825.606000", "123825.608000", "123825.611000", "123825.613000", "123825.616000", "123825.618000", "123825.621000", "123825.623000", "123825.625000", "123825.628000", "123825.630000", "123825.633000", "123825.635000", "123825.637000", "123825.640000", "123825.642000", "123825.645000", "123845.567000", "123845.570000", "123845.572000", "123845.575000", "123845.578000", "123845.580000", "123845.582000", "123845.585000", "123845.587000", "123845.590000", "123845.592000", "123845.595000", "123845.597000", "123845.599000", "123845.602000", "123845.611000", "123845.613000", "123845.616000", "123845.618000", "123845.621000", "123845.623000", "123845.625000", "123845.628000", "123845.630000", "123845.633000", "123845.635000", "123845.637000", "123845.640000", "123845.642000", "123845.645000", "123845.647000", "123845.649000", "123845.652000", "123905.566000", "123905.569000", "123905.571000", "123905.574000", "123905.577000", "123905.579000", "123905.581000", "123905.584000", "123905.586000", "123905.589000", "123905.591000", "123905.593000", "123905.596000", "123905.598000", "123905.601000", "123905.603000", "123905.606000", "123905.608000", "123905.610000", "123905.613000", "123905.615000", "123905.618000", "123905.620000", "123905.623000", "123905.625000", "123905.628000", "123905.630000", "123905.632000", "123905.635000", "123905.637000", "123905.639000", "123905.642000", "123925.566000", "123925.578000", "123925.581000", "123925.583000", "123925.586000", "123925.588000", "123925.591000", "123925.593000", "123925.596000", "123925.598000", "123925.600000", "123925.603000", "123925.605000", "123925.608000", "123925.610000", "123925.613000", "123925.615000", "123925.618000", "123925.620000", "123925.623000", "123925.625000", "123925.628000", "123925.630000", "123925.632000", "123925.635000", "123925.637000", "123925.640000", "123925.642000", "123925.645000", "123925.647000", "123925.649000", "123925.652000", "123925.654000", "123945.566000", "123945.569000", "123945.571000", "123945.573000", "123945.576000", "123945.579000", "123945.581000", "123945.583000", "123945.586000", "123945.588000", "123945.591000", "123945.593000", "123945.596000", "123945.598000", "123945.600000", "123945.603000", "123945.605000", "123945.608000", "123945.610000", "123945.612000", "123945.615000", "123945.617000", "123945.620000", "123945.622000", "123945.624000", "123945.627000", "123945.629000", "123945.631000", "123945.634000", "123945.643000", "123945.646000", "123945.648000", "123945.650000", "124005.320000", "124005.322000", "124005.325000", "124005.327000", "124005.330000", "124005.332000", "124005.335000", "124005.337000", "124005.339000", "124005.342000", "124005.344000", "124005.347000", "124005.349000", "124005.351000", "124005.354000", "124005.356000", "124005.359000", "124005.361000", "124005.364000", "124005.366000", "124005.368000", "124005.371000", "124005.373000", "124005.376000", "124005.378000", "124005.380000", "124005.383000", "124005.385000", "124005.388000", "124005.390000", "124005.393000", "124005.395000", "124005.397000"], "InstanceCreationTime": ["123525.571000", "123525.574000", "123525.576000", "123525.579000", "123525.582000", "123525.584000", "123525.586000", "123525.590000", "123525.593000", "123525.595000", "123525.598000", "123525.600000", "123525.603000", "123525.605000", "123525.607000", "123525.610000", "123525.612000", "123525.615000", "123525.617000", "123525.620000", "123525.622000", "123525.624000", "123525.627000", "123525.629000", "123525.632000", "123525.634000", "123525.636000", "123525.639000", "123525.641000", "123525.644000", "123525.647000", "123525.649000", "123525.652000", "123525.654000", "123525.656000", "123525.665000", "123525.668000", "123525.670000", "123525.673000", "123525.675000", "123525.678000", "123525.680000", "123525.682000", "123525.685000", "123525.687000", "123525.690000", "123525.692000", "123525.694000", "123525.697000", "123525.699000", "123525.702000", "123545.567000", "123545.570000", "123545.573000", "123545.575000", "123545.577000", "123545.580000", "123545.582000", "123545.585000", "123545.587000", "123545.590000", "123545.592000", "123545.594000", "123545.597000", "123545.599000", "123545.602000", "123545.604000", "123545.606000", "123545.609000", "123545.611000", "123545.614000", "123545.616000", "123545.618000", "123545.627000", "123545.629000", "123545.631000", "123545.634000", "123545.636000", "123545.639000", "123545.641000", "123545.643000", "123545.646000", "123545.648000", "123545.651000", "123605.567000", "123605.570000", "123605.572000", "123605.575000", "123605.577000", "123605.580000", "123605.582000", "123605.584000", "123605.587000", "123605.589000", "123605.592000", "123605.594000", "123605.596000", "123605.599000", "123605.601000", "123605.604000", "123605.606000", "123605.609000", "123605.611000", "123605.613000", "123605.616000", "123605.618000", "123605.621000", "123605.623000", "123605.625000", "123605.628000", "123605.631000", "123605.633000", "123605.636000", "123605.638000", "123605.640000", "123605.643000", "123625.567000", "123625.570000", "123625.572000", "123625.575000", "123625.577000", "123625.580000", "123625.582000", "123625.585000", "123625.587000", "123625.589000", "123625.592000", "123625.595000", "123625.597000", "123625.600000", "123625.602000", "123625.604000", "123625.607000", "123625.609000", "123625.611000", "123625.614000", "123625.616000", "123625.619000", "123625.621000", "123625.624000", "123625.626000", "123625.628000", "123625.631000", "123625.633000", "123625.636000", "123625.638000", "123625.641000", "123625.643000", "123625.647000", "123645.566000", "123645.569000", "123645.571000", "123645.574000", "123645.576000", "123645.578000", "123645.581000", "123645.583000", "123645.586000", "123645.588000", "123645.591000", "123645.593000", "123645.596000", "123645.598000", "123645.600000", "123645.603000", "123645.605000", "123645.608000", "123645.610000", "123645.613000", "123645.615000", "123645.617000", "123645.620000", "123645.622000", "123645.625000", "123645.627000", "123645.629000", "123645.646000", "123645.648000", "123645.659000", "123645.661000", "123645.664000", "123645.666000", "123705.566000", "123705.569000", "123705.571000", "123705.574000", "123705.577000", "123705.579000", "123705.581000", "123705.584000", "123705.586000", "123705.589000", "123705.591000", "123705.594000", "123705.596000", "123705.599000", "123705.601000", "123705.603000", "123705.606000", "123705.608000", "123705.611000", "123705.613000", "123705.615000", "123705.618000", "123705.620000", "123705.623000", "123705.630000", "123705.632000", "123705.635000", "123705.637000", "123705.640000", "123705.642000", "123705.644000", "123705.647000", "123705.649000", "123725.566000", "123725.569000", "123725.572000", "123725.574000", "123725.577000", "123725.579000", "123725.582000", "123725.584000", "123725.587000", "123725.589000", "123725.592000", "123725.594000", "123725.596000", "123725.599000", "123725.601000", "123725.604000", "123725.606000", "123725.608000", "123725.611000", "123725.613000", "123725.616000", "123725.618000", "123725.620000", "123725.623000", "123725.625000", "123725.628000", "123725.630000", "123725.632000", "123725.635000", "123725.637000", "123725.639000", "123725.642000", "123725.644000", "123745.566000", "123745.569000", "123745.571000", "123745.574000", "123745.576000", "123745.579000", "123745.581000", "123745.584000", "123745.586000", "123745.589000", "123745.591000", "123745.593000", "123745.596000", "123745.598000", "123745.601000", "123745.603000", "123745.606000", "123745.608000", "123745.611000", "123745.614000", "123745.616000", "123745.618000", "123745.621000", "123745.623000", "123745.626000", "123745.628000", "123745.631000", "123745.633000", "123745.636000", "123745.638000", "123745.641000", "123745.643000", "123805.567000", "123805.570000", "123805.572000", "123805.575000", "123805.577000", "123805.579000", "123805.582000", "123805.584000", "123805.587000", "123805.589000", "123805.592000", "123805.594000", "123805.596000", "123805.599000", "123805.601000", "123805.604000", "123805.606000", "123805.608000", "123805.611000", "123805.613000", "123805.616000", "123805.618000", "123805.620000", "123805.623000", "123805.625000", "123805.627000", "123805.630000", "123805.632000", "123805.635000", "123805.638000", "123805.640000", "123805.643000", "123805.645000", "123825.567000", "123825.570000", "123825.572000", "123825.575000", "123825.577000", "123825.580000", "123825.582000", "123825.584000", "123825.587000", "123825.589000", "123825.591000", "123825.594000", "123825.596000", "123825.599000", "123825.601000", "123825.604000", "123825.606000", "12