{
    "AcquisitionMatrixPE": 64,
    "AcquisitionNumber": 1,
    "AcquisitionTime": "11:20:44.755000",
    "BandwidthPerPixelPhaseEncode": 28.935,
    "BaseResolution": 64,
    "BodyPartExamined": "BRAIN",
    "CoilCombinationMethod": "Sum of Squares",
    "ConsistencyInfo": "N4_VE11E_LATEST_20181129",
    "ConversionSoftware": "dcm2niix",
    "ConversionSoftwareVersion": "v1.0.20211006",
    "DerivedVendorReportedEchoSpacing": 0.000540003,
    "DeviceSerialNumber": "166182",
    "DwellTime": 3.4e-06,
    "EchoTime": 0.032,
    "EchoTrainLength": 64,
    "EffectiveEchoSpacing": 0.000540003,
    "FlipAngle": 40,
    "ImageOrientationPatientDICOM": [
        0.999795,
        -0.0140269,
        -0.0146332,
        0.0139606,
        0.999892,
        -0.00462357
    ],
    "ImageOrientationText": "Tra>Sag(-0.8)>Cor(-0.3)",
    "ImageType": [
        "ORIGINAL",
        "PRIMARY",
        "M",
        "ND",
        "NORM",
        "MOSAIC"
    ],
    "ImagingFrequency": 123.258,
    "InPlanePhaseEncodingDirectionDICOM": "COL",
    "InstitutionAddress": "PEARSE STREET .,City,District,IE,D2",
    "InstitutionName": "TCIN",
    "InstitutionalDepartmentName": "MRI",
    "MRAcquisitionType": "2D",
    "MagneticFieldStrength": 3,
    "Manufacturer": "Siemens",
    "ManufacturersModelName": "Prisma",
    "Modality": "MR",
    "MultibandAccelerationFactor": 4,
    "PartialFourier": 1,
    "PatientPosition": "HFS",
    "PercentPhaseFOV": 100,
    "PercentSampling": 100,
    "PhaseEncodingDirection": "j-",
    "PhaseEncodingSteps": 64,
    "PhaseResolution": 1,
    "PixelBandwidth": 2300,
    "ProcedureStepDescription": "Rhodri^Head BOLD",
    "ProtocolName": "cmrr_mbep2d_bold_Pictures_AP",
    "PulseSequenceDetails": "%SiemensSeq%\\ep2d_bold",
    "ReceiveCoilActiveElements": "HC2,4,6,7;NC2;SC",
    "ReceiveCoilName": "SpecialPurpose_4",
    "ReconMatrixPE": 64,
    "RefLinesPE": 12,
    "RepetitionTime": 0.61,
    "SAR": 0.308477,
    "ScanOptions": "FS",
    "ScanningSequence": "EP",
    "SequenceName": "*epfid2d1_64",
    "SequenceVariant": "SK",
    "SeriesDescription": "cmrr_mbep2d_bold_Pictures_AP",
    "SeriesNumber": 14,
    "ShimSetting": [
        -3648,
        -7533,
        3789,
        1225,
        34,
        175,
        339,
        43
    ],
    "SliceThickness": 3,
    "SliceTiming": [
        0.2625,
        0,
        0.3275,
        0.0675,
        0.395,
        0.1325,
        0.46,
        0.1975,
        0.525,
        0.2625,
        0,
        0.3275,
        0.0675,
        0.395,
        0.1325,
        0.46,
        0.1975,
        0.525,
        0.2625,
        0,
        0.3275,
        0.0675,
        0.395,
        0.1325,
        0.46,
        0.1975,
        0.525,
        0.2625,
        0,
        0.3275,
        0.0675,
        0.395,
        0.1325,
        0.46,
        0.1975,
        0.525
    ],
    "SoftwareVersions": "syngo MR E11",
    "SpacingBetweenSlices": 3.3,
    "StationName": "AWP166182",
    "TaskName": "pictures",
    "TotalReadoutTime": 0.0340202,
    "TxRefAmp": 237.746,
    "dcmmeta_affine": [
        [
            -2.9993836879730225,
            0.04188184812664986,
            -0.04849834740161896,
            95.53809356689453
        ],
        [
            0.04208076745271683,
            2.9996755123138428,
            -0.014580486342310905,
            -105.72500610351562
        ],
        [
            -0.04389959201216698,
            0.013870703056454659,
            3.2996113300323486,
            -87.06523895263672
        ],
        [
            0.0,
            0.0,
            0.0,
            1.0
        ]
    ],
    "dcmmeta_reorient_transform": [
        [
            0.0,
            -1.0,
            0.0,
            63.0
        ],
        [
            1.0,
            0.0,
            0.0,
            0.0
        ],
        [
            0.0,
            0.0,
            1.0,
            0.0
        ],
        [
            0.0,
            0.0,
            0.0,
            1.0
        ]
    ],
    "dcmmeta_shape": [
        64,
        64,
        36,
        510
    ],
    "dcmmeta_slice_dim": 2,
    "dcmmeta_version": 0.6,
    "global": {
        "const": {
            "AcquisitionMatrix": [
                64,
                0,
                0,
                64
            ],
            "AngioFlag": "N",
            "BitsAllocated": 16,
            "BitsStored": 12,
            "BodyPartExamined": "BRAIN",
            "Columns": 384,
            "EchoNumbers": 1,
            "EchoTime": 32.0,
            "EchoTrainLength": 64,
            "FlipAngle": 40.0,
            "HighBit": 11,
            "ImageOrientationPatient": [
                0.99979453637932,
                -0.0140269223131,
                -0.014633197753,
                0.01396061620574,
                0.99989185606119,
                -0.0046235676335
            ],
            "ImagePositionPatient": [
                -584.77912543027,
                -556.46972451345,
                -76.948134570515
            ],
            "ImageType": [
                "ORIGINAL",
                "PRIMARY",
                "M",
                "ND",
                "NORM",
                "MOSAIC"
            ],
            "ImagedNucleus": "1H",
            "ImagingFrequency": 123.257897,
            "InPlanePhaseEncodingDirection": "COL",
            "MRAcquisitionType": "2D",
            "MagneticFieldStrength": 3.0,
            "Manufacturer": "SIEMENS",
            "ManufacturerModelName": "Prisma",
            "Modality": "MR",
            "NumberOfAverages": 1.0,
            "NumberOfPhaseEncodingSteps": 64,
            "PercentPhaseFieldOfView": 100.0,
            "PercentSampling": 100.0,
            "PerformedProcedureStepStartTime": "103321.452000",
            "PhotometricInterpretation": "MONOCHROME2",
            "PixelBandwidth": 2300.0,
            "PixelRepresentation": 0,
            "PixelSpacing": [
                3.0,
                3.0
            ],
            "ProtocolName": "cmrr_mbep2d_bold_Pictures_AP",
            "RepetitionTime": 610.0,
            "Rows": 384,
            "SAR": 0.30847672604704,
            "SamplesPerPixel": 1,
            "ScanOptions": "FS",
            "ScanningSequence": "EP",
            "SequenceName": "*epfid2d1_64",
            "SequenceVariant": "SK",
            "SeriesDescription": "cmrr_mbep2d_bold_Pictures_AP",
            "SeriesNumber": 14,
            "SeriesTime": "112102.425000",
            "SliceLocation": -87.991928214643,
            "SliceThickness": 3.0,
            "SmallestImagePixelValue": 0,
            "SoftwareVersions": "syngo MR E11",
            "SpacingBetweenSlices": 3.2999998931738,
            "SpecificCharacterSet": "ISO_IR 100",
            "StudyID": "1",
            "StudyTime": "103321.295000",
            "TransmitCoilName": "Body",
            "VariableFlipAngleFlag": "N",
            "WindowCenterWidthExplanation": "Algo1"
        },
        "slices": {}
    },
    "time": {
        "samples": {
            "AcquisitionNumber": [
                1,
                2,
                3,
                4,
                5,
                6,
                7,
                8,
                9,
                10,
                11,
                12,
                13,
                14,
                15,
                16,
                17,
                18,
                19,
                20,
                21,
                22,
                23,
                24,
                25,
                26,
                27,
                28,
                29,
                30,
                31,
                32,
                33,
                34,
                35,
                36,
                37,
                38,
                39,
                40,
                41,
                42,
                43,
                44,
                45,
                46,
                47,
                48,
                49,
                50,
                51,
                52,
                53,
                54,
                55,
                56,
                57,
                58,
                59,
                60,
                61,
                62,
                63,
                64,
                65,
                66,
                67,
                68,
                69,
                70,
                71,
                72,
                73,
                74,
                75,
                76,
                77,
                78,
                79,
                80,
                81,
                82,
                83,
                84,
                85,
                86,
                87,
                88,
                89,
                90,
                91,
                92,
                93,
                94,
                95,
                96,
                97,
                98,
                99,
                100,
                101,
                102,
                103,
                104,
                105,
                106,
                107,
                108,
                109,
                110,
                111,
                112,
                113,
                114,
                115,
                116,
                117,
                118,
                119,
                120,
                121,
                122,
                123,
                124,
                125,
                126,
                127,
                128,
                129,
                130,
                131,
                132,
                133,
                134,
                135,
                136,
                137,
                138,
                139,
                140,
                141,
                142,
                143,
                144,
                145,
                146,
                147,
                148,
                149,
                150,
                151,
                152,
                153,
                154,
                155,
                156,
                157,
                158,
                159,
                160,
                161,
                162,
                163,
                164,
                165,
                166,
                167,
                168,
                169,
                170,
                171,
                172,
                173,
                174,
                175,
                176,
                177,
                178,
                179,
                180,
                181,
                182,
                183,
                184,
                185,
                186,
                187,
                188,
                189,
                190,
                191,
                192,
                193,
                194,
                195,
                196,
                197,
                198,
                199,
                200,
                201,
                202,
                203,
                204,
                205,
                206,
                207,
                208,
                209,
                210,
                211,
                212,
                213,
                214,
                215,
                216,
                217,
                218,
                219,
                220,
                221,
                222,
                223,
                224,
                225,
                226,
                227,
                228,
                229,
                230,
                231,
                232,
                233,
                234,
                235,
                236,
                237,
                238,
                239,
                240,
                241,
                242,
                243,
                244,
                245,
                246,
                247,
                248,
                249,
                250,
                251,
                252,
                253,
                254,
                255,
                256,
                257,
                258,
                259,
                260,
                261,
                262,
                263,
                264,
                265,
                266,
                267,
                268,
                269,
                270,
                271,
                272,
                273,
                274,
                275,
                276,
                277,
                278,
                279,
                280,
                281,
                282,
                283,
                284,
                285,
                286,
                287,
                288,
                289,
                290,
                291,
                292,
                293,
                294,
                295,
                296,
                297,
                298,
                299,
                300,
                301,
                302,
                303,
                304,
                305,
                306,
                307,
                308,
                309,
                310,
                311,
                312,
                313,
                314,
                315,
                316,
                317,
                318,
                319,
                320,
                321,
                322,
                323,
                324,
                325,
                326,
                327,
                328,
                329,
                330,
                331,
                332,
                333,
                334,
                335,
                336,
                337,
                338,
                339,
                340,
                341,
                342,
                343,
                344,
                345,
                346,
                347,
                348,
                349,
                350,
                351,
                352,
                353,
                354,
                355,
                356,
                357,
                358,
                359,
                360,
                361,
                362,
                363,
                364,
                365,
                366,
                367,
                368,
                369,
                370,
                371,
                372,
                373,
                374,
                375,
                376,
                377,
                378,
                379,
                380,
                381,
                382,
                383,
                384,
                385,
                386,
                387,
                388,
                389,
                390,
                391,
                392,
                393,
                394,
                395,
                396,
                397,
                398,
                399,
                400,
                401,
                402,
                403,
                404,
                405,
                406,
                407,
                408,
                409,
                410,
                411,
                412,
                413,
                414,
                415,
                416,
                417,
                418,
                419,
                420,
                421,
                422,
                423,
                424,
                425,
                426,
                427,
                428,
                429,
                430,
                431,
                432,
                433,
                434,
                435,
                436,
                437,
                438,
                439,
                440,
                441,
                442,
                443,
                444,
                445,
                446,
                447,
                448,
                449,
                450,
                451,
                452,
                453,
                454,
                455,
                456,
                457,
                458,
                459,
                460,
                461,
                462,
                463,
                464,
                465,
                466,
                467,
                468,
                469,
                470,
                471,
                472,
                473,
                474,
                475,
                476,
                477,
                478,
                479,
                480,
                481,
                482,
                483,
                484,
                485,
                486,
                487,
                488,
                489,
                490,
                491,
                492,
                493,
                494,
                495,
                496,
                497,
                498,
                499,
                500,
                501,
                502,
                503,
                504,
                505,
                506,
                507,
                508,
                509,
                510
            ],
            "AcquisitionTime": [
                "112044.755000",
                "112045.365000",
                "112045.975000",
                "112046.585000",
                "112047.195000",
                "112047.805000",
                "112048.415000",
                "112049.025000",
                "112049.635000",
                "112050.245000",
                "112050.855000",
                "112051.465000",
                "112052.075000",
                "112052.685000",
                "112053.295000",
                "112053.905000",
                "112054.515000",
                "112055.125000",
                "112055.735000",
                "112056.345000",
                "112056.955000",
                "112057.565000",
                "112058.175000",
                "112058.785000",
                "112059.395000",
                "112100.005000",
                "112100.615000",
                "112101.225000",
                "112101.835000",
                "112102.445000",
                "112103.055000",
                "112103.665000",
                "112104.275000",
                "112104.885000",
                "112105.495000",
                "112106.105000",
                "112106.715000",
                "112107.325000",
                "112107.935000",
                "112108.545000",
                "112109.155000",
                "112109.765000",
                "112110.375000",
                "112110.985000",
                "112111.595000",
                "112112.205000",
                "112112.815000",
                "112113.425000",
                "112114.035000",
                "112114.645000",
                "112115.255000",
                "112115.865000",
                "112116.475000",
                "112117.085000",
                "112117.695000",
                "112118.305000",
                "112118.915000",
                "112119.525000",
                "112120.135000",
                "112120.745000",
                "112121.355000",
                "112121.965000",
                "112122.575000",
                "112123.185000",
                "112123.795000",
                "112124.405000",
                "112125.015000",
                "112125.625000",
                "112126.235000",
                "112126.845000",
                "112127.455000",
                "112128.065000",
                "112128.675000",
                "112129.285000",
                "112129.895000",
                "112130.505000",
                "112131.115000",
                "112131.725000",
                "112132.335000",
                "112132.945000",
                "112133.555000",
                "112134.165000",
                "112134.775000",
                "112135.385000",
                "112135.995000",
                "112136.605000",
                "112137.215000",
                "112137.825000",
                "112138.435000",
                "112139.045000",
                "112139.655000",
                "112140.265000",
                "112140.875000",
                "112141.485000",
                "112142.095000",
                "112142.705000",
                "112143.315000",
                "112143.925000",
                "112144.535000",
                "112145.145000",
                "112145.755000",
                "112146.365000",
                "112146.975000",
                "112147.585000",
                "112148.195000",
                "112148.805000",
                "112149.415000",
                "112150.025000",
                "112150.635000",
                "112151.245000",
                "112151.855000",
                "112152.465000",
                "112153.075000",
                "112153.685000",
                "112154.295000",
                "112154.905000",
                "112155.515000",
                "112156.125000",
                "112156.735000",
                "112157.345000",
                "112157.955000",
                "112158.565000",
                "112159.175000",
                "112159.785000",
                "112200.395000",
                "112201.005000",
                "112201.615000",
                "112202.225000",
                "112202.835000",
                "112203.445000",
                "112204.055000",
                "112204.665000",
                "112205.275000",
                "112205.885000",
                "112206.495000",
                "112207.105000",
                "112207.715000",
                "112208.325000",
                "112208.935000",
                "112209.545000",
                "112210.155000",
                "112210.765000",
                "112211.375000",
                "112211.985000",
                "112212.595000",
                "112213.205000",
                "112213.815000",
                "112214.425000",
                "112215.035000",
                "112215.645000",
                "112216.255000",
                "112216.865000",
                "112217.475000",
                "112218.085000",
                "112218.695000",
                "112219.305000",
                "112219.915000",
                "112220.525000",
                "112221.135000",
                "112221.745000",
                "112222.355000",
                "112222.965000",
                "112223.575000",
                "112224.185000",
                "112224.795000",
                "112225.405000",
                "112226.015000",
                "112226.625000",
                "112227.235000",
                "112227.845000",
                "112228.455000",
                "112229.065000",
                "112229.675000",
                "112230.285000",
                "112230.895000",
                "112231.505000",
                "112232.115000",
                "112232.725000",
                "112233.335000",
                "112233.945000",
                "112234.555000",
                "112235.165000",
                "112235.775000",
                "112236.385000",
                "112236.995000",
                "112237.605000",
                "112238.215000",
                "112238.825000",
                "112239.435000",
                "112240.045000",
                "112240.655000",
                "112241.265000",
                "112241.875000",
                "112242.485000",
                "112243.095000",
                "112243.705000",
                "112244.315000",
                "112244.925000",
                "112245.535000",
                "112246.145000",
                "112246.755000",
                "112247.365000",
                "112247.975000",
                "112248.585000",
                "112249.195000",
                "112249.805000",
                "112250.415000",
                "112251.025000",
                "112251.635000",
                "112252.245000",
                "112252.855000",
                "112253.465000",
                "112254.075000",
                "112254.685000",
                "112255.295000",
                "112255.905000",
                "112256.515000",
                "112257.125000",
                "112257.735000",
                "112258.345000",
                "112258.955000",
                "112259.565000",
                "112300.175000",
                "112300.785000",
                "112301.395000",
                "112302.005000",
                "112302.615000",
                "112303.225000",
                "112303.835000",
                "112304.445000",
                "112305.055000",
                "112305.665000",
                "112306.275000",
                "112306.885000",
                "112307.495000",
                "112308.105000",
                "112308.715000",
                "112309.325000",
                "112309.935000",
                "112310.545000",
                "112311.155000",
                "112311.765000",
                "112312.375000",
                "112312.985000",
                "112313.595000",
                "112314.205000",
                "112314.815000",
                "112315.425000",
                "112316.035000",
                "112316.645000",
                "112317.255000",
                "112317.865000",
                "112318.475000",
                "112319.085000",
                "112319.695000",
                "112320.305000",
                "112320.915000",
                "112321.525000",
                "112322.135000",
                "112322.745000",
                "112323.355000",
                "112323.965000",
                "112324.575000",
                "112325.185000",
                "112325.795000",
                "112326.405000",
                "112327.015000",
                "112327.625000",
                "112328.235000",
                "112328.845000",
                "112329.455000",
                "112330.065000",
                "112330.675000",
                "112331.285000",
                "112331.895000",
                "112332.505000",
                "112333.115000",
                "112333.725000",
                "112334.335000",
                "112334.945000",
                "112335.555000",
                "112336.165000",
                "112336.775000",
                "112337.385000",
                "112337.995000",
                "112338.605000",
                "112339.215000",
                "112339.825000",
                "112340.435000",
                "112341.045000",
                "112341.655000",
                "112342.265000",
                "112342.875000",
                "112343.485000",
                "112344.095000",
                "112344.705000",
                "112345.315000",
                "112345.925000",
                "112346.535000",
                "112347.145000",
                "112347.755000",
                "112348.365000",
                "112348.975000",
                "112349.585000",
                "112350.195000",
                "112350.805000",
                "112351.415000",
                "112352.025000",
                "112352.635000",
                "112353.245000",
                "112353.855000",
                "112354.465000",
                "112355.075000",
                "112355.685000",
                "112356.295000",
                "112356.905000",
                "112357.515000",
                "112358.125000",
                "112358.735000",
                "112359.345000",
                "112359.955000",
                "112400.565000",
                "112401.175000",
                "112401.785000",
                "112402.395000",
                "112403.005000",
                "112403.615000",
                "112404.225000",
                "112404.835000",
                "112405.445000",
                "112406.055000",
                "112406.665000",
                "112407.275000",
                "112407.885000",
                "112408.495000",
                "112409.105000",
                "112409.715000",
                "112410.325000",
                "112410.935000",
                "112411.545000",
                "112412.155000",
                "112412.765000",
                "112413.375000",
                "112413.985000",
                "112414.595000",
                "112415.205000",
                "112415.815000",
                "112416.425000",
                "112417.035000",
                "112417.645000",
                "112418.255000",
                "112418.865000",
                "112419.475000",
                "112420.085000",
                "112420.695000",
                "112421.305000",
                "112421.915000",
                "112422.525000",
                "112423.135000",
                "112423.745000",
                "112424.355000",
                "112424.965000",
                "112425.575000",
                "112426.185000",
                "112426.795000",
                "112427.405000",
                "112428.015000",
                "112428.625000",
                "112429.235000",
                "112429.845000",
                "112430.455000",
