{"AcquisitionMatrixPE": 64, "AcquisitionNumber": 1, "AcquisitionTime": "11:52:38.710000", "BandwidthPerPixelPhaseEncode": 28.935, "BaseResolution": 64, "BodyPartExamined": "BRAIN", "CoilCombinationMethod": "Sum of Squares", "ConsistencyInfo": "N4_VE11E_LATEST_20181129", "ConversionSoftware": "dcm2niix", "ConversionSoftwareVersion": "v1.0.20230411", "DerivedVendorReportedEchoSpacing": 0.000540003, "DeviceSerialNumber": "166182", "DwellTime": 3.4e-06, "EchoTime": 0.032, "EchoTrainLength": 64, "EffectiveEchoSpacing": 0.000540003, "FlipAngle": 40, "HeudiconvVersion": "0.13.1", "ImageOrientationPatientDICOM": [0.99684, 0.0782015, 0.0139593, -0.0772277, 0.995189, -0.0602897], "ImageOrientationText": "Tra>Cor(-3.4)>Sag(1.1)", "ImageType": ["ORIGINAL", "PRIMARY", "M", "ND", "NORM", "MOSAIC"], "ImagingFrequency": 123.254691, "InPlanePhaseEncodingDirectionDICOM": "COL", "InstitutionAddress": "PEARSE STREET .,City,District,IE,D2", "InstitutionName": "TCIN", "InstitutionalDepartmentName": "MRI", "MRAcquisitionType": "2D", "MagneticFieldStrength": 3, "Manufacturer": "Siemens", "ManufacturersModelName": "Prisma", "Modality": "MR", "MultibandAccelerationFactor": 4, "NonlinearGradientCorrection": false, "PartialFourier": 1, "PatientPosition": "HFS", "PercentPhaseFOV": 100, "PercentSampling": 100, "PhaseEncodingDirection": "j-", "PhaseEncodingSteps": 64, "PhaseResolution": 1, "PixelBandwidth": 2300, "ProcedureStepDescription": "Rhodri^Head BOLD", "ProtocolName": "cmrr_mbep2d_Pictures_AP_RDS", "PulseSequenceDetails": "%SiemensSeq%\\ep2d_bold", "ReceiveCoilActiveElements": "HC2,4,6,7", "ReceiveCoilName": "HeadNeck_64", "ReconMatrixPE": 64, "RefLinesPE": 12, "RepetitionTime": 0.61, "SAR": 0.179369, "ScanOptions": "FS", "ScanningSequence": "EP", "SequenceName": "*epfid2d1_64", "SequenceVariant": "SK", "SeriesDescription": "cmrr_mbep2d_Pictures_AP_RDS", "SeriesNumber": 8, "ShimSetting": [-3613, -7506, 3919, 919, 67, 406, 176, 11], "SliceThickness": 3, "SliceTiming": [0.2625, 0, 0.3275, 0.065, 0.3925, 0.13, 0.4575, 0.195, 0.5225, 0.2625, 0, 0.3275, 0.065, 0.3925, 0.13, 0.4575, 0.195, 0.5225, 0.2625, 0, 0.3275, 0.065, 0.3925, 0.13, 0.4575, 0.195, 0.5225, 0.2625, 0, 0.3275, 0.065, 0.3925, 0.13, 0.4575, 0.195, 0.5225], "SoftwareVersions": "syngo MR E11", "SpacingBetweenSlices": 3.3, "StationName": "AWP166182", "TaskName": "pictures", "TotalReadoutTime": 0.0340202, "TxRefAmp": 239.245, "dcmmeta_affine": [[-2.9905195236206055, -0.231683149933815, 0.06140276417136192, 104.85197448730469], [-0.23460449278354645, 2.9855668544769287, -0.1947697103023529, -87.40544128417969], [0.04187794029712677, 0.18086910247802734, 3.2936747074127197, -82.54000091552734], [0.0, 0.0, 0.0, 1.0]], "dcmmeta_reorient_transform": [[0.0, -1.0, 0.0, 63.0], [1.0, 0.0, 0.0, 0.0], [0.0, 0.0, 1.0, 0.0], [0.0, 0.0, 0.0, 1.0]], "dcmmeta_shape": [64, 64, 36, 510], "dcmmeta_slice_dim": 2, "dcmmeta_version": 0.6, "global": {"const": {"AcquisitionMatrix": [64, 0, 0, 64], "AngioFlag": "N", "BitsAllocated": 16, "BitsStored": 12, "BodyPartExamined": "BRAIN", "Columns": 384, "EchoNumbers": 1, "EchoTime": 32.0, "EchoTrainLength": 64, "FlipAngle": 40.0, "HighBit": 11, "ImageOrientationPatient": [0.99683983837371, 0.0782014974407, 0.01395931334653, -0.0772277148471, 0.99518894301703, -0.0602896985906], "ImagePositionPatient": [-531.66975605438, -615.91268304653, -48.906662271791], "ImageType": ["ORIGINAL", "PRIMARY", "M", "ND", "NORM", "MOSAIC"], "ImagedNucleus": "1H", "ImagingFrequency": 123.254691, "InPlanePhaseEncodingDirection": "COL", "MRAcquisitionType": "2D", "MagneticFieldStrength": 3.0, "Manufacturer": "SIEMENS", "ManufacturerModelName": "Prisma", "Modality": "MR", "NumberOfAverages": 1.0, "NumberOfPhaseEncodingSteps": 64, "PercentPhaseFieldOfView": 100.0, "PercentSampling": 100.0, "PerformedProcedureStepStartTime": "113926.783000", "PhotometricInterpretation": "MONOCHROME2", "PixelBandwidth": 2300.0, "PixelRepresentation": 0, "PixelSpacing": [3.0, 3.0], "ProtocolName": "cmrr_mbep2d_Pictures_AP_RDS", "RepetitionTime": 610.0, "Rows": 384, "SAR": 0.17936928566627, "SamplesPerPixel": 1, "ScanOptions": "FS", "ScanningSequence": "EP", "SequenceName": "*epfid2d1_64", "SequenceVariant": "SK", "SeriesDescription": "cmrr_mbep2d_Pictures_AP_RDS", "SeriesNumber": 8, "SeriesTime": "115307.611000", "SliceLocation": -75.272058823599, "SliceThickness": 3.0, "SmallestImagePixelValue": 0, "SoftwareVersions": "syngo MR E11", "SpacingBetweenSlices": 3.2999998792957, "SpecificCharacterSet": "ISO_IR 100", "StudyID": "1", "StudyTime": "113926.595000", "TransmitCoilName": "Body", "VariableFlipAngleFlag": "N", "WindowCenterWidthExplanation": "Algo1"}, "slices": {}}, "time": {"samples": {"AcquisitionNumber": [1, 2, 3, 4, 5, 6, 7, 8, 9, 10, 11, 12, 13, 14, 15, 16, 17, 18, 19, 20, 21, 22, 23, 24, 25, 26, 27, 28, 29, 30, 31, 32, 33, 34, 35, 36, 37, 38, 39, 40, 41, 42, 43, 44, 45, 46, 47, 48, 49, 50, 51, 52, 53, 54, 55, 56, 57, 58, 59, 60, 61, 62, 63, 64, 65, 66, 67, 68, 69, 70, 71, 72, 73, 74, 75, 76, 77, 78, 79, 80, 81, 82, 83, 84, 85, 86, 87, 88, 89, 90, 91, 92, 93, 94, 95, 96, 97, 98, 99, 100, 101, 102, 103, 104, 105, 106, 107, 108, 109, 110, 111, 112, 113, 114, 115, 116, 117, 118, 119, 120, 121, 122, 123, 124, 125, 126, 127, 128, 129, 130, 131, 132, 133, 134, 135, 136, 137, 138, 139, 140, 141, 142, 143, 144, 145, 146, 147, 148, 149, 150, 151, 152, 153, 154, 155, 156, 157, 158, 159, 160, 161, 162, 163, 164, 165, 166, 167, 168, 169, 170, 171, 172, 173, 174, 175, 176, 177, 178, 179, 180, 181, 182, 183, 184, 185, 186, 187, 188, 189, 190, 191, 192, 193, 194, 195, 196, 197, 198, 199, 200, 201, 202, 203, 204, 205, 206, 207, 208, 209, 210, 211, 212, 213, 214, 215, 216, 217, 218, 219, 220, 221, 222, 223, 224, 225, 226, 227, 228, 229, 230, 231, 232, 233, 234, 235, 236, 237, 238, 239, 240, 241, 242, 243, 244, 245, 246, 247, 248, 249, 250, 251, 252, 253, 254, 255, 256, 257, 258, 259, 260, 261, 262, 263, 264, 265, 266, 267, 268, 269, 270, 271, 272, 273, 274, 275, 276, 277, 278, 279, 280, 281, 282, 283, 284, 285, 286, 287, 288, 289, 290, 291, 292, 293, 294, 295, 296, 297, 298, 299, 300, 301, 302, 303, 304, 305, 306, 307, 308, 309, 310, 311, 312, 313, 314, 315, 316, 317, 318, 319, 320, 321, 322, 323, 324, 325, 326, 327, 328, 329, 330, 331, 332, 333, 334, 335, 336, 337, 338, 339, 340, 341, 342, 343, 344, 345, 346, 347, 348, 349, 350, 351, 352, 353, 354, 355, 356, 357, 358, 359, 360, 361, 362, 363, 364, 365, 366, 367, 368, 369, 370, 371, 372, 373, 374, 375, 376, 377, 378, 379, 380, 381, 382, 383, 384, 385, 386, 387, 388, 389, 390, 391, 392, 393, 394, 395, 396, 397, 398, 399, 400, 401, 402, 403, 404, 405, 406, 407, 408, 409, 410, 411, 412, 413, 414, 415, 416, 417, 418, 419, 420, 421, 422, 423, 424, 425, 426, 427, 428, 429, 430, 431, 432, 433, 434, 435, 436, 437, 438, 439, 440, 441, 442, 443, 444, 445, 446, 447, 448, 449, 450, 451, 452, 453, 454, 455, 456, 457, 458, 459, 460, 461, 462, 463, 464, 465, 466, 467, 468, 469, 470, 471, 472, 473, 474, 475, 476, 477, 478, 479, 480, 481, 482, 483, 484, 485, 486, 487, 488, 489, 490, 491, 492, 493, 494, 495, 496, 497, 498, 499, 500, 501, 502, 503, 504, 505, 506, 507, 508, 509, 510], "AcquisitionTime": ["115238.710000", "115239.320000", "115239.930000", "115240.540000", "115241.150000", "115241.760000", "115242.370000", "115242.980000", "115243.590000", "115244.200000", "115244.810000", "115245.420000", "115246.030000", "115246.640000", "115247.250000", "115247.860000", "115248.470000", "115249.080000", "115249.690000", "115250.300000", "115250.910000", "115251.520000", "115252.130000", "115252.740000", "115253.350000", "115253.960000", "115254.570000", "115255.180000", "115255.790000", "115256.400000", "115257.010000", "115257.620000", "115258.230000", "115258.840000", "115259.450000", "115300.060000", "115300.670000", "115301.280000", "115301.890000", "115302.500000", "115303.110000", "115303.720000", "115304.330000", "115304.940000", "115305.550000", "115306.160000", "115306.770000", "115307.380000", "115307.990000", "115308.600000", "115309.210000", "115309.820000", "115310.430000", "115311.040000", "115311.650000", "115312.260000", "115312.870000", "115313.480000", "115314.090000", "115314.700000", "115315.310000", "115315.920000", "115316.530000", "115317.140000", "115317.750000", "115318.360000", "115318.970000", "115319.580000", "115320.190000", "115320.800000", "115321.410000", "115322.020000", "115322.630000", "115323.240000", "115323.850000", "115324.460000", "115325.070000", "115325.680000", "115326.290000", "115326.900000", "115327.510000", "115328.120000", "115328.730000", "115329.340000", "115329.950000", "115330.560000", "115331.170000", "115331.780000", "115332.390000", "115333.000000", "115333.610000", "115334.220000", "115334.830000", "115335.440000", "115336.050000", "115336.660000", "115337.270000", "115337.880000", "115338.490000", "115339.100000", "115339.710000", "115340.320000", "115340.930000", "115341.540000", "115342.150000", "115342.760000", "115343.370000", "115343.980000", "115344.590000", "115345.200000", "115345.810000", "115346.420000", "115347.030000", "115347.640000", "115348.250000", "115348.860000", "115349.470000", "115350.080000", "115350.690000", "115351.300000", "115351.910000", "115352.520000", "115353.130000", "115353.740000", "115354.350000", "115354.960000", "115355.570000", "115356.180000", "115356.790000", "115357.400000", "115358.010000", "115358.620000", "115359.230000", "115359.840000", "115400.450000", "115401.060000", "115401.670000", "115402.280000", "115402.890000", "115403.500000", "115404.110000", "115404.720000", "115405.330000", "115405.940000", "115406.550000", "115407.160000", "115407.770000", "115408.380000", "115408.990000", "115409.600000", "115410.210000", "115410.820000", "115411.430000", "115412.040000", "115412.650000", "115413.260000", "115413.870000", "115414.480000", "115415.090000", "115415.700000", "115416.310000", "115416.920000", "115417.530000", "115418.140000", "115418.750000", "115419.360000", "115419.970000", "115420.580000", "115421.190000", "115421.800000", "115422.410000", "115423.020000", "115423.630000", "115424.240000", "115424.850000", "115425.460000", "115426.070000", "115426.680000", "115427.290000", "115427.900000", "115428.510000", "115429.120000", "115429.730000", "115430.340000", "115430.950000", "115431.560000", "115432.170000", "115432.780000", "115433.390000", "115434.000000", "115434.610000", "115435.220000", "115435.830000", "115436.440000", "115437.050000", "115437.660000", "115438.270000", "115438.880000", "115439.490000", "115440.100000", "115440.710000", "115441.320000", "115441.930000", "115442.540000", "115443.150000", "115443.760000", "115444.370000", "115444.980000", "115445.590000", "115446.200000", "115446.810000", "115447.420000", "115448.030000", "115448.640000", "115449.250000", "115449.860000", "115450.470000", "115451.080000", "115451.690000", "115452.300000", "115452.910000", "115453.520000", "115454.130000", "115454.740000", "115455.350000", "115455.960000", "115456.570000", "115457.180000", "115457.790000", "115458.400000", "115459.010000", "115459.620000", "115500.230000", "115500.840000", "115501.450000", "115502.060000", "115502.670000", "115503.280000", "115503.890000", "115504.500000", "115505.110000", "115505.720000", "115506.330000", "115506.940000", "115507.550000", "115508.160000", "115508.770000", "115509.380000", "115509.990000", "115510.600000", "115511.210000", "115511.820000", "115512.430000", "115513.040000", "115513.650000", "115514.260000", "115514.870000", "115515.480000", "115516.090000", "115516.700000", "115517.310000", "115517.920000", "115518.530000", "115519.140000", "115519.750000", "115520.360000", "115520.970000", "115521.580000", "115522.190000", "115522.800000", "115523.410000", "115524.020000", "115524.630000", "115525.240000", "115525.850000", "115526.460000", "115527.070000", "115527.680000", "115528.290000", "115528.900000", "115529.510000", "115530.120000", "115530.730000", "115531.340000", "115531.950000", "115532.560000", "115533.170000", "115533.780000", "115534.390000", "115535.000000", "115535.610000", "115536.220000", "115536.830000", "115537.440000", "115538.050000", "115538.660000", "115539.270000", "115539.880000", "115540.490000", "115541.100000", "115541.710000", "115542.320000", "115542.930000", "115543.540000", "115544.150000", "115544.760000", "115545.370000", "115545.980000", "115546.590000", "115547.200000", "115547.810000", "115548.420000", "115549.030000", "115549.640000", "115550.250000", "115550.860000", "115551.470000", "115552.080000", "115552.690000", "115553.300000", "115553.910000", "115554.520000", "115555.130000", "115555.740000", "115556.350000", "115556.960000", "115557.570000", "115558.180000", "115558.790000", "115559.400000", "115600.010000", "115600.620000", "115601.230000", "115601.840000", "115602.450000", "115603.060000", "115603.670000", "115604.280000", "115604.890000", "115605.500000", "115606.110000", "115606.720000", "115607.330000", "115607.940000", "115608.550000", "115609.160000", "115609.770000", "115610.380000", "115610.990000", "115611.600000", "115612.210000", "115612.820000", "115613.430000", "115614.040000", "115614.650000", "115615.260000", "115615.870000", "115616.480000", "115617.090000", "115617.700000", "115618.310000", "115618.920000", "115619.530000", "115620.140000", "115620.750000", "115621.360000", "115621.970000", "115622.580000", "115623.190000", "115623.800000", "115624.410000", "115625.020000", "115625.630000", "115626.240000", "115626.850000", "115627.460000", "115628.070000", "115628.680000", "115629.290000", "115629.900000", "115630.510000", "115631.120000", "115631.730000", "115632.340000", "115632.950000", "115633.560000", "115634.170000", "115634.780000", "115635.390000", "115636.000000", "115636.610000", "115637.220000", "115637.830000", "115638.440000", "115639.050000", "115639.660000", "115640.270000", "115640.880000", "115641.490000", "115642.100000", "115642.710000", "115643.320000", "115643.930000", "115644.540000", "115645.150000", "115645.760000", "115646.370000", "115646.980000", "115647.590000", "115648.200000", "115648.810000", "115649.420000", "115650.030000", "115650.640000", "115651.250000", "115651.860000", "115652.470000", "115653.080000", "115653.690000", "115654.300000", "115654.910000", "115655.520000", "115656.130000", "115656.740000", "115657.350000", "115657.960000", "115658.570000", "115659.180000", "115659.790000", "115700.400000", "115701.010000", "115701.620000", "115702.230000", "115702.840000", "115703.450000", "115704.060000", "115704.670000", "115705.280000", "115705.890000", "115706.500000", "115707.110000", "115707.720000", "115708.330000", "115708.940000", "115709.550000", "115710.160000", "115710.770000", "115711.380000", "115711.990000", "115712.600000", "115713.210000", "115713.820000", "115714.430000", "115715.040000", "115715.650000", "115716.260000", "115716.870000", "115717.480000", "115718.090000", "115718.700000", "115719.310000", "115719.920000", "115720.530000", "115721.140000", "115721.750000", "115722.360000", "115722.970000", "115723.580000", "115724.190000", "115724.800000", "115725.410000", "115726.020000", "115726.630000", "115727.240000", "115727.850000", "115728.460000", "115729.070000", "115729.680000", "115730.290000", "115730.900000", "115731.510000", "115732.120000", "115732.730000", "115733.340000", "115733.950000", "115734.560000", "115735.170000", "115735.780000", "115736.390000", "115737.000000", "115737.610000", "115738.220000", "115738.830000", "115739.440000", "115740.050000", "115740.660000", "115741.270000", "115741.880000", "115742.490000", "115743.100000", "115743.710000", "115744.320000", "115744.930000", "115745.540000", "115746.150000", "115746.760000", "115747.370000", "115747.980000", "115748.590000", "115749.200000"], "ContentTime": ["115307.614000", "115307.619000", "115307.622000", "115307.624000", "115307.626000", "115307.629000", "115307.631000", "115307.633000", "115307.636000", "115307.638000", "115307.640000", "115307.643000", "115307.645000", "115307.647000", "115307.650000", "115307.652000", "115307.654000", "115307.661000", "115307.664000", "115307.666000", "115307.669000", "115307.671000", "115307.673000", "115307.676000", "115307.678000", "115307.680000", "115307.683000", "115307.685000", "115307.687000", "115307.690000", "115307.692000", "115307.694000", "115307.697000", "115307.699000", "115307.701000", "115307.704000", "115307.706000", "115307.708000", "115307.711000", "115307.713000", "115307.716000", "115307.718000", "115307.720000", "115307.723000", "115307.725000", "115307.732000", "115327.608000", "115327.611000", "115327.613000", "115327.615000", "115327.618000", "115327.620000", "115327.622000", "115327.625000", "115327.627000", "115327.629000", "115327.632000", "115327.634000", "115327.637000", "115327.639000", "115327.641000", "115327.644000", "115327.646000", "115327.648000", "115327.651000", "115327.653000", "115327.655000", "115327.658000", "115327.660000", "115327.663000", "115327.665000", "115327.667000", "115327.670000", "115327.672000", "115327.674000", "115327.676000", "115327.679000", "115327.681000", "115327.684000", "115347.608000", "115347.612000", "115347.614000", "115347.617000", "115347.619000", "115347.621000", "115347.624000", "115347.626000", "115347.628000", "115347.631000", "115347.633000", "115347.636000", "115347.638000", "115347.640000", "115347.643000", "115347.645000", "115347.647000", "115347.650000", "115347.652000", "115347.654000", "115347.657000", "115347.659000", "115347.661000", "115347.664000", "115347.666000", "115347.668000", "115347.671000", "115347.673000", "115347.675000", "115347.678000", "115347.680000", "115347.682000", "115347.685000", "115407.608000", "115407.611000", "115407.613000", "115407.616000", "115407.618000", "115407.621000", "115407.623000", "115407.625000", "115407.628000", "115407.630000", "115407.632000", "115407.635000", "115407.637000", "115407.639000", "115407.642000", "115407.644000", "115407.646000", "115407.649000", "115407.651000", "115407.653000", "115407.656000", "115407.658000", "115407.660000", "115407.663000", "115407.665000", "115407.689000", "115407.691000", "115407.694000", "115407.696000", "115407.698000", "115407.701000", "115407.703000", "115427.608000", "115427.611000", "115427.613000", "115427.615000", "115427.618000", "115427.620000", "115427.622000", "115427.625000", "115427.627000", "115427.630000", "115427.632000", "115427.634000", "115427.637000", "115427.639000", "115427.641000", "115427.644000", "115427.646000", "115427.648000", "115427.651000", "115427.653000", "115427.655000", "115427.658000", "115427.660000", "115427.663000", "115427.665000", "115427.667000", "115427.670000", "115427.672000", "115427.674000", "115427.677000", "115427.679000", "115427.682000", "115427.685000", "115447.608000", "115447.611000", "115447.613000", "115447.616000", "115447.618000", "115447.620000", "115447.623000", "115447.625000", "115447.627000", "115447.630000", "115447.632000", "115447.634000", "115447.637000", "115447.639000", "115447.641000", "115447.644000", "115447.646000", "115447.648000", "115447.651000", "115447.653000", "115447.655000", "115447.658000", "115447.660000", "115447.662000", "115447.665000", "115447.667000", "115447.670000", "115447.672000", "115447.674000", "115447.677000", "115447.679000", "115447.682000", "115447.684000", "115507.609000", "115507.612000", "115507.614000", "115507.616000", "115507.619000", "115507.621000", "115507.624000", "115507.626000", "115507.628000", "115507.631000", "115507.633000", "115507.635000", "115507.638000", "115507.640000", "115507.642000", "115507.645000", "115507.647000", "115507.649000", "115507.652000", "115507.654000", "115507.656000", "115507.659000", "115507.661000", "115507.663000", "115507.666000", "115507.668000", "115507.671000", "115507.673000", "115507.676000", "115507.678000", "115507.681000", "115507.683000", "115507.686000", "115527.610000", "115527.612000", "115527.615000", "115527.618000", "115527.620000", "115527.622000", "115527.625000", "115527.627000", "115527.630000", "115527.632000", "115527.635000", "115527.637000", "115527.644000", "115527.647000", "115527.649000", "115527.651000", "115527.654000", "115527.656000", "115527.659000", "115527.661000", "115527.663000", "115527.666000", "115527.668000", "115527.671000", "115527.673000", "115527.675000", "115527.678000", "115527.680000", "115527.682000", "115527.685000", "115527.687000", "115527.690000", "115547.608000", "115547.611000", "115547.613000", "115547.615000", "115547.618000", "115547.620000", "115547.622000", "115547.625000", "115547.628000", "115547.630000", "115547.632000", "115547.635000", "115547.637000", "115547.640000", "115547.642000", "115547.645000", "115547.647000", "115547.649000", "115547.652000", "115547.654000", "115547.657000", "115547.659000", "115547.662000", "115547.664000", "115547.666000", "115547.669000", "115547.671000", "115547.673000", "115547.676000", "115547.678000", "115547.680000", "115547.683000", "115547.685000", "115607.608000", "115607.611000", "115607.613000", "115607.616000", "115607.618000", "115607.621000", "115607.623000", "115607.625000", "115607.628000", "115607.630000", "115607.633000", "115607.635000", "115607.638000", "115607.640000", "115607.642000", "115607.645000", "115607.647000", "115607.649000", "115607.652000", "115607.654000", "115607.657000", "115607.659000", "115607.661000", "115607.664000", "115607.666000", "115607.668000", "115607.671000", "115607.673000", "115607.675000", "115607.678000", "115607.680000", "115607.682000", "115607.685000", "115627.608000", "115627.611000", "115627.613000", "115627.615000", "115627.618000", "115627.620000", "115627.622000", "115627.625000", "115627.627000", "115627.630000", "115627.632000", "115627.634000", "115627.637000", "115627.639000", "115627.641000", "115627.644000", "115627.646000", "115627.648000", "115627.651000", "115627.653000", "115627.655000", "115627.658000", "115627.660000", "115627.662000", "115627.665000", "115627.667000", "115627.670000", "115627.672000", "115627.674000", "115627.677000", "115627.679000", "115627.681000", "115627.684000", "115647.608000", "115647.611000", "115647.613000", "115647.616000", "115647.618000", "115647.621000", "115647.623000", "115647.625000", "115647.628000", "115647.630000", "115647.632000", "115647.635000", "115647.637000", "115647.639000", "115647.642000", "115647.644000", "115647.646000", "115647.649000", "115647.651000", "115647.653000", "115647.656000", "115647.658000", "115647.660000", "115647.663000", "115647.665000", "115647.668000", "115647.670000", "115647.672000", "115647.675000", "115647.677000", "115647.679000", "115647.682000", "115647.684000", "115707.608000", "115707.611000", "115707.613000", "115707.615000", "115707.618000", "115707.630000", "115707.633000", "115707.635000", "115707.638000", "115707.640000", "115707.642000", "115707.645000", "115707.647000", "115707.649000", "115707.652000", "115707.654000", "115707.657000", "115707.659000", "115707.662000", "115707.664000", "115707.667000", "115707.669000", "115707.671000", "115707.674000", "115707.676000", "115707.678000", "115707.681000", "115707.683000", "115707.686000", "115707.688000", "115707.690000", "115707.693000", "115727.609000", "115727.612000", "115727.614000", "115727.617000", "115727.619000", "115727.621000", "115727.624000", "115727.626000", "115727.628000", "115727.631000", "115727.634000", "115727.636000", "115727.638000", "115727.641000", "115727.643000", "115727.646000", "115727.648000", "115727.651000", "115727.653000", "115727.655000", "115727.658000", "115727.660000", "115727.662000", "115727.665000", "115727.667000", "115727.670000", "115727.672000", "115727.674000", "115727.677000", "115727.679000", "115727.681000", "115727.684000", "115727.686000", "115747.609000", "115747.612000", "115747.614000", "115747.617000", "115747.619000", "115747.621000", "115747.624000", "115747.626000", "115747.628000", "115747.631000", "115747.633000", "115747.636000", "115747.639000", "115747.641000", "115747.643000", "115747.646000", "115747.648000", "115747.650000", "115747.653000", "115747.655000", "115747.658000", "115747.660000", "115747.662000", "115747.665000", "115747.667000", "115747.669000", "115747.672000", "115747.674000", "115747.676000", "115747.679000", "115747.681000", "115747.683000", "115747.693000", "115750.323000", "115750.326000", "115750.328000", "115750.331000", "115750.333000"], "InstanceCreationTime": ["115307.614000", "115307.619000", "115307.622000", "115307.624000", "115307.626000", "115307.629000", "115307.631000", "115307.633000", "115307.636000", "115307.638000", "115307.640000", "115307.643000", "115307.645000", "115307.647000", "115307.650000", "115307.652000", "115307.654000", "115307.661000", "115307.664000", "115307.666000", "115307.669000", "115307.671000", "115307.673000", "115307.676000", "115307.678000", "115307.680000", "115307.683000", "115307.685000", "115307.687000", "115307.690000", "115307.692000", "115307.694000", "115307.697000", "115307.699000", "115307.701000", "115307.704000", "115307.706000", "115307.708000", "115307.711000", "115307.713000", "115307.716000", "115307.718000", "115307.720000", "115307.723000", "115307.725000", "115307.732000", "115327.608000", "115327.611000", "115327.613000", "115327.615000", "115327.618000", "115327.620000", "115327.622000", "115327.625000", "115327.627000", "115327.629000", "115327.632000", "115327.634000", "115327.637000", "115327.639000", "115327.641000", "115327.644000", "115327.646000", "115327.648000", "115327.651000", "115327.653000", "115327.655000", "115327.658000", "115327.660000", "115327.663000", "115327.665000", "115327.667000", "115327.670000", "115327.672000", "115327.674000", "115327.676000", "115327.679000", "115327.681000", "115327.684000", "115347.608000", "115347.612000", "115347.614000", "115347.617000", "115347.619000", "115347.621000", "115347.624000", "115347.626000", "115347.628000", "115347.631000", "115347.633000", "115347.636000", "115347.638000", "115347.640000", "115347.643000", "115347.645000", "115347.647000", "115347.650000", "115347.652000", "115347.654000", "115347.657000", "115347.659000", "115347.661000", "115347.664000", "115347.666000", "115347.668000", "115347.671000", "115347.673000", "115347.675000", "115347.678000", "115347.680000", "115347.682000", "115347.685000", "115407.608000", "115407.611000", "115407.613000", "115407.616000", "115407.618000", "115407.621000", "115407.623000", "115407.625000", "115407.628000", "115407.630000", "115407.632000", "115407.635000", "115407.637000", "115407.639000", "115407.642000", "115407.644000", "115407.646000", "115407.649000", "115407.651000", "115407.653000", "115407.656000", "115407.658000", "115407.660000", "115407.663000", "115407.665000", "115407.689000", "115407.691000", "115407.694000", "115407.696000", "115407.698000", "115407.701000", "115407.703000", "115427.608000", "115427.611000", "115427.613000", "115427.615000", "115427.618000", "115427.620000", "115427.622000", "115427.625000", "115427.627000", "115427.630000", "115427.632000", "115427.634000", "115427.637000", "115427.639000", "115427.641000", "115427.644000", "115427.646000", "115427.648000", "115427.651000", "115427.653000", "115427.655000", "115427.658000", "115427.660000", "115427.663000", "115427.665000", "115427.667000", "115427.670000", "115427.672000", "115427.674000", "115427.677000", "115427.679000", "115427.682000", "115427.685000", "115447.608000", "115447.611000", "115447.613000", "115447.616000", "115447.618000", "115447.620000", "115447.623000", "115447.625000", "115447.627000", "115447.630000", "115447.632000", "115447.634000", "115447.637000", "115447.639000", "115447.641000", "115447.644000", "115447.646000", "115447.648000", "115447.651000", "115447.653000", "115447.655000", "115447.658000", "115447.660000", "115447.662000", "115447.665000", "115447.667000", "115447.670000", "115447.672000", "115447.674000", "115447.677000", "115447.679000", "115447.682000", "115447.684000", "115507.609000", "115507.612000", "115507.614000", "115507.616000", "115507.619000", "115507.621000", "115507.624000", "115507.626000", "115507.628000", "115507.631000", "115507.633000", "115507.635000", "115507.638000", "115507.640000", "115507.642000", "115507.645000", "115507.647000", "115507.649000", "115507.652000", "115507.654000", "115507.656000", "115507.659000", "115507.661000", "115507.663000", "115507.666000", "115507.668000", "115507.671000", "115507.673000", "115507.676000", "115507.678000", "115507.681000", "115507.683000", "115507.686000", "115527.610000", "115527.612000", "115527.615000", "115527.618000", "115527.620000", "115527.622000", "115527.625000", "115527.627000", "115527.630000", "115527.632000", "115527.635000", "115527.637000", "115527.644000", "115527.647000", "115527.649000", "115527.651000", "115527.654000", "115527.656000", "115527.659000", "115527.661000", "115527.663000", "115527.666000", "115527.668000", "115527.671000", "115527.673000", "115527.675000", "115527.678000", "115527.680000", "115527.682000", "115527.685000", "115527.687000", "115527.690000", "115547.608000", "115547.611000", "115547.613000", "115547.615000", "115547.618000", "115547.620000", "115547.622000", "115547.625000", "115547.628000", "115547.630000", "115547.632000", "115547.635000", "115547.637000", "115547.640000", "115547.642000", "115547.645000", "115547.647000", "115547.649000", "115547.652000", "115547.654000", "115547.657000", "115547.659000", "115547.662000", "115547.664000", "115547.666000", "115547.669000", "115547.671000", "115547.673000", "115547.676000", "115547.678000", "115547.680000", "115547.683000", "115547.685000", "115607.608000", "115607.611000", "115607.613000", "115607.616000", "115607.618000", "115607.621000", "115607.623000", "115607.625000", "115607.628000", "115607.630000", "115607.633000", "115607.635000", "11