{"AcquisitionMatrixPE": 64, "AcquisitionNumber": 1, "AcquisitionTime": "12:03:22.705000", "BandwidthPerPixelPhaseEncode": 28.935, "BaseResolution": 64, "BodyPartExamined": "BRAIN", "CoilCombinationMethod": "Sum of Squares", "ConsistencyInfo": "N4_VE11E_LATEST_20181129", "ConversionSoftware": "dcm2niix", "ConversionSoftwareVersion": "v1.0.20230411", "DerivedVendorReportedEchoSpacing": 0.000540003, "DeviceSerialNumber": "166182", "DwellTime": 3.4e-06, "EchoTime": 0.032, "EchoTrainLength": 64, "EffectiveEchoSpacing": 0.000540003, "FlipAngle": 40, "HeudiconvVersion": "0.13.1", "ImageOrientationPatientDICOM": [0.99684, 0.0782015, 0.0139593, -0.0772277, 0.995189, -0.0602897], "ImageOrientationText": "Tra>Cor(-3.4)>Sag(1.1)", "ImageType": ["ORIGINAL", "PRIMARY", "M", "ND", "NORM", "MOSAIC"], "ImagingFrequency": 123.254699, "InPlanePhaseEncodingDirectionDICOM": "COL", "InstitutionAddress": "PEARSE STREET .,City,District,IE,D2", "InstitutionName": "TCIN", "InstitutionalDepartmentName": "MRI", "MRAcquisitionType": "2D", "MagneticFieldStrength": 3, "Manufacturer": "Siemens", "ManufacturersModelName": "Prisma", "Modality": "MR", "MultibandAccelerationFactor": 4, "NonlinearGradientCorrection": false, "PartialFourier": 1, "PatientPosition": "HFS", "PercentPhaseFOV": 100, "PercentSampling": 100, "PhaseEncodingDirection": "j-", "PhaseEncodingSteps": 64, "PhaseResolution": 1, "PixelBandwidth": 2300, "ProcedureStepDescription": "Rhodri^Head BOLD", "ProtocolName": "cmrr_mbep2d_Pictures_AP_RDS", "PulseSequenceDetails": "%SiemensSeq%\\ep2d_bold", "ReceiveCoilActiveElements": "HC2,4,6,7", "ReceiveCoilName": "HeadNeck_64", "ReconMatrixPE": 64, "RefLinesPE": 12, "RepetitionTime": 0.61, "SAR": 0.179369, "ScanOptions": "FS", "ScanningSequence": "EP", "SequenceName": "*epfid2d1_64", "SequenceVariant": "SK", "SeriesDescription": "cmrr_mbep2d_Pictures_AP_RDS", "SeriesNumber": 10, "ShimSetting": [-3613, -7506, 3919, 919, 67, 406, 176, 11], "SliceThickness": 3, "SliceTiming": [0.2625, 0, 0.3275, 0.065, 0.3925, 0.13, 0.4575, 0.195, 0.5225, 0.2625, 0, 0.3275, 0.065, 0.3925, 0.13, 0.4575, 0.195, 0.5225, 0.2625, 0, 0.3275, 0.065, 0.3925, 0.13, 0.4575, 0.195, 0.5225, 0.2625, 0, 0.3275, 0.065, 0.3925, 0.13, 0.4575, 0.195, 0.5225], "SoftwareVersions": "syngo MR E11", "SpacingBetweenSlices": 3.3, "StationName": "AWP166182", "TaskName": "pictures", "TotalReadoutTime": 0.0340202, "TxRefAmp": 239.245, "dcmmeta_affine": [[-2.9905195236206055, -0.231683149933815, 0.06140276417136192, 104.85197448730469], [-0.23460449278354645, 2.9855668544769287, -0.1947697103023529, -87.40544128417969], [0.04187794029712677, 0.18086910247802734, 3.2936747074127197, -82.54000091552734], [0.0, 0.0, 0.0, 1.0]], "dcmmeta_reorient_transform": [[0.0, -1.0, 0.0, 63.0], [1.0, 0.0, 0.0, 0.0], [0.0, 0.0, 1.0, 0.0], [0.0, 0.0, 0.0, 1.0]], "dcmmeta_shape": [64, 64, 36, 510], "dcmmeta_slice_dim": 2, "dcmmeta_version": 0.6, "global": {"const": {"AcquisitionMatrix": [64, 0, 0, 64], "AngioFlag": "N", "BitsAllocated": 16, "BitsStored": 12, "BodyPartExamined": "BRAIN", "Columns": 384, "EchoNumbers": 1, "EchoTime": 32.0, "EchoTrainLength": 64, "FlipAngle": 40.0, "HighBit": 11, "ImageOrientationPatient": [0.99683983837371, 0.0782014974407, 0.01395931334653, -0.0772277148471, 0.99518894301703, -0.0602896985906], "ImagePositionPatient": [-531.66975605438, -615.91268304653, -48.906662271791], "ImageType": ["ORIGINAL", "PRIMARY", "M", "ND", "NORM", "MOSAIC"], "ImagedNucleus": "1H", "ImagingFrequency": 123.254699, "InPlanePhaseEncodingDirection": "COL", "MRAcquisitionType": "2D", "MagneticFieldStrength": 3.0, "Manufacturer": "SIEMENS", "ManufacturerModelName": "Prisma", "Modality": "MR", "NumberOfAverages": 1.0, "NumberOfPhaseEncodingSteps": 64, "PercentPhaseFieldOfView": 100.0, "PercentSampling": 100.0, "PerformedProcedureStepStartTime": "113926.783000", "PhotometricInterpretation": "MONOCHROME2", "PixelBandwidth": 2300.0, "PixelRepresentation": 0, "PixelSpacing": [3.0, 3.0], "ProtocolName": "cmrr_mbep2d_Pictures_AP_RDS", "RepetitionTime": 610.0, "Rows": 384, "SAR": 0.17936928566627, "SamplesPerPixel": 1, "ScanOptions": "FS", "ScanningSequence": "EP", "SequenceName": "*epfid2d1_64", "SequenceVariant": "SK", "SeriesDescription": "cmrr_mbep2d_Pictures_AP_RDS", "SeriesNumber": 10, "SeriesTime": "120347.506000", "SliceLocation": -75.272058823599, "SliceThickness": 3.0, "SmallestImagePixelValue": 0, "SoftwareVersions": "syngo MR E11", "SpacingBetweenSlices": 3.2999998792957, "SpecificCharacterSet": "ISO_IR 100", "StudyID": "1", "StudyTime": "113926.595000", "TransmitCoilName": "Body", "VariableFlipAngleFlag": "N", "WindowCenterWidthExplanation": "Algo1"}, "slices": {}}, "time": {"samples": {"AcquisitionNumber": [1, 2, 3, 4, 5, 6, 7, 8, 9, 10, 11, 12, 13, 14, 15, 16, 17, 18, 19, 20, 21, 22, 23, 24, 25, 26, 27, 28, 29, 30, 31, 32, 33, 34, 35, 36, 37, 38, 39, 40, 41, 42, 43, 44, 45, 46, 47, 48, 49, 50, 51, 52, 53, 54, 55, 56, 57, 58, 59, 60, 61, 62, 63, 64, 65, 66, 67, 68, 69, 70, 71, 72, 73, 74, 75, 76, 77, 78, 79, 80, 81, 82, 83, 84, 85, 86, 87, 88, 89, 90, 91, 92, 93, 94, 95, 96, 97, 98, 99, 100, 101, 102, 103, 104, 105, 106, 107, 108, 109, 110, 111, 112, 113, 114, 115, 116, 117, 118, 119, 120, 121, 122, 123, 124, 125, 126, 127, 128, 129, 130, 131, 132, 133, 134, 135, 136, 137, 138, 139, 140, 141, 142, 143, 144, 145, 146, 147, 148, 149, 150, 151, 152, 153, 154, 155, 156, 157, 158, 159, 160, 161, 162, 163, 164, 165, 166, 167, 168, 169, 170, 171, 172, 173, 174, 175, 176, 177, 178, 179, 180, 181, 182, 183, 184, 185, 186, 187, 188, 189, 190, 191, 192, 193, 194, 195, 196, 197, 198, 199, 200, 201, 202, 203, 204, 205, 206, 207, 208, 209, 210, 211, 212, 213, 214, 215, 216, 217, 218, 219, 220, 221, 222, 223, 224, 225, 226, 227, 228, 229, 230, 231, 232, 233, 234, 235, 236, 237, 238, 239, 240, 241, 242, 243, 244, 245, 246, 247, 248, 249, 250, 251, 252, 253, 254, 255, 256, 257, 258, 259, 260, 261, 262, 263, 264, 265, 266, 267, 268, 269, 270, 271, 272, 273, 274, 275, 276, 277, 278, 279, 280, 281, 282, 283, 284, 285, 286, 287, 288, 289, 290, 291, 292, 293, 294, 295, 296, 297, 298, 299, 300, 301, 302, 303, 304, 305, 306, 307, 308, 309, 310, 311, 312, 313, 314, 315, 316, 317, 318, 319, 320, 321, 322, 323, 324, 325, 326, 327, 328, 329, 330, 331, 332, 333, 334, 335, 336, 337, 338, 339, 340, 341, 342, 343, 344, 345, 346, 347, 348, 349, 350, 351, 352, 353, 354, 355, 356, 357, 358, 359, 360, 361, 362, 363, 364, 365, 366, 367, 368, 369, 370, 371, 372, 373, 374, 375, 376, 377, 378, 379, 380, 381, 382, 383, 384, 385, 386, 387, 388, 389, 390, 391, 392, 393, 394, 395, 396, 397, 398, 399, 400, 401, 402, 403, 404, 405, 406, 407, 408, 409, 410, 411, 412, 413, 414, 415, 416, 417, 418, 419, 420, 421, 422, 423, 424, 425, 426, 427, 428, 429, 430, 431, 432, 433, 434, 435, 436, 437, 438, 439, 440, 441, 442, 443, 444, 445, 446, 447, 448, 449, 450, 451, 452, 453, 454, 455, 456, 457, 458, 459, 460, 461, 462, 463, 464, 465, 466, 467, 468, 469, 470, 471, 472, 473, 474, 475, 476, 477, 478, 479, 480, 481, 482, 483, 484, 485, 486, 487, 488, 489, 490, 491, 492, 493, 494, 495, 496, 497, 498, 499, 500, 501, 502, 503, 504, 505, 506, 507, 508, 509, 510], "AcquisitionTime": ["120322.705000", "120323.315000", "120323.925000", "120324.535000", "120325.145000", "120325.755000", "120326.365000", "120326.975000", "120327.585000", "120328.195000", "120328.805000", "120329.415000", "120330.025000", "120330.635000", "120331.245000", "120331.855000", "120332.465000", "120333.075000", "120333.685000", "120334.295000", "120334.905000", "120335.515000", "120336.125000", "120336.735000", "120337.345000", "120337.955000", "120338.565000", "120339.175000", "120339.785000", "120340.395000", "120341.005000", "120341.615000", "120342.225000", "120342.835000", "120343.445000", "120344.055000", "120344.665000", "120345.275000", "120345.885000", "120346.495000", "120347.105000", "120347.715000", "120348.325000", "120348.935000", "120349.545000", "120350.155000", "120350.765000", "120351.375000", "120351.985000", "120352.595000", "120353.205000", "120353.815000", "120354.425000", "120355.035000", "120355.645000", "120356.255000", "120356.865000", "120357.475000", "120358.085000", "120358.695000", "120359.305000", "120359.915000", "120400.525000", "120401.135000", "120401.745000", "120402.355000", "120402.965000", "120403.575000", "120404.185000", "120404.795000", "120405.405000", "120406.015000", "120406.625000", "120407.235000", "120407.845000", "120408.455000", "120409.065000", "120409.675000", "120410.285000", "120410.895000", "120411.505000", "120412.115000", "120412.725000", "120413.335000", "120413.945000", "120414.555000", "120415.165000", "120415.775000", "120416.385000", "120416.995000", "120417.605000", "120418.215000", "120418.825000", "120419.435000", "120420.045000", "120420.655000", "120421.265000", "120421.875000", "120422.485000", "120423.095000", "120423.705000", "120424.315000", "120424.925000", "120425.535000", "120426.145000", "120426.755000", "120427.365000", "120427.975000", "120428.585000", "120429.195000", "120429.805000", "120430.415000", "120431.025000", "120431.635000", "120432.245000", "120432.855000", "120433.465000", "120434.075000", "120434.685000", "120435.295000", "120435.905000", "120436.515000", "120437.125000", "120437.735000", "120438.345000", "120438.955000", "120439.565000", "120440.175000", "120440.785000", "120441.395000", "120442.005000", "120442.615000", "120443.225000", "120443.835000", "120444.445000", "120445.055000", "120445.665000", "120446.275000", "120446.885000", "120447.495000", "120448.105000", "120448.715000", "120449.325000", "120449.935000", "120450.545000", "120451.155000", "120451.765000", "120452.375000", "120452.985000", "120453.595000", "120454.205000", "120454.815000", "120455.425000", "120456.035000", "120456.645000", "120457.255000", "120457.865000", "120458.475000", "120459.085000", "120459.695000", "120500.305000", "120500.915000", "120501.525000", "120502.135000", "120502.745000", "120503.355000", "120503.965000", "120504.575000", "120505.185000", "120505.795000", "120506.405000", "120507.015000", "120507.625000", "120508.235000", "120508.845000", "120509.455000", "120510.065000", "120510.675000", "120511.285000", "120511.895000", "120512.505000", "120513.115000", "120513.725000", "120514.335000", "120514.945000", "120515.555000", "120516.165000", "120516.775000", "120517.385000", "120517.995000", "120518.605000", "120519.215000", "120519.825000", "120520.435000", "120521.045000", "120521.655000", "120522.265000", "120522.875000", "120523.485000", "120524.095000", "120524.705000", "120525.315000", "120525.925000", "120526.535000", "120527.145000", "120527.755000", "120528.365000", "120528.975000", "120529.585000", "120530.195000", "120530.805000", "120531.415000", "120532.025000", "120532.635000", "120533.245000", "120533.855000", "120534.465000", "120535.075000", "120535.685000", "120536.295000", "120536.905000", "120537.515000", "120538.125000", "120538.735000", "120539.345000", "120539.955000", "120540.565000", "120541.175000", "120541.785000", "120542.395000", "120543.005000", "120543.615000", "120544.225000", "120544.835000", "120545.445000", "120546.055000", "120546.665000", "120547.275000", "120547.885000", "120548.495000", "120549.105000", "120549.715000", "120550.325000", "120550.935000", "120551.545000", "120552.155000", "120552.765000", "120553.375000", "120553.985000", "120554.595000", "120555.205000", "120555.815000", "120556.425000", "120557.035000", "120557.645000", "120558.255000", "120558.865000", "120559.475000", "120600.085000", "120600.695000", "120601.305000", "120601.915000", "120602.525000", "120603.135000", "120603.745000", "120604.355000", "120604.965000", "120605.575000", "120606.185000", "120606.795000", "120607.405000", "120608.015000", "120608.625000", "120609.235000", "120609.845000", "120610.455000", "120611.065000", "120611.675000", "120612.285000", "120612.895000", "120613.505000", "120614.115000", "120614.725000", "120615.335000", "120615.945000", "120616.555000", "120617.165000", "120617.775000", "120618.385000", "120618.995000", "120619.605000", "120620.215000", "120620.825000", "120621.435000", "120622.045000", "120622.655000", "120623.265000", "120623.875000", "120624.485000", "120625.095000", "120625.705000", "120626.315000", "120626.925000", "120627.535000", "120628.145000", "120628.755000", "120629.365000", "120629.975000", "120630.585000", "120631.195000", "120631.805000", "120632.415000", "120633.025000", "120633.635000", "120634.245000", "120634.855000", "120635.465000", "120636.075000", "120636.685000", "120637.295000", "120637.905000", "120638.515000", "120639.125000", "120639.735000", "120640.345000", "120640.955000", "120641.565000", "120642.175000", "120642.785000", "120643.395000", "120644.005000", "120644.615000", "120645.225000", "120645.835000", "120646.445000", "120647.055000", "120647.665000", "120648.275000", "120648.885000", "120649.495000", "120650.105000", "120650.715000", "120651.325000", "120651.935000", "120652.545000", "120653.155000", "120653.765000", "120654.375000", "120654.985000", "120655.595000", "120656.205000", "120656.815000", "120657.425000", "120658.035000", "120658.645000", "120659.255000", "120659.865000", "120700.475000", "120701.085000", "120701.695000", "120702.305000", "120702.915000", "120703.525000", "120704.135000", "120704.745000", "120705.355000", "120705.965000", "120706.575000", "120707.185000", "120707.795000", "120708.405000", "120709.015000", "120709.625000", "120710.235000", "120710.845000", "120711.455000", "120712.065000", "120712.675000", "120713.285000", "120713.895000", "120714.505000", "120715.115000", "120715.725000", "120716.335000", "120716.945000", "120717.555000", "120718.165000", "120718.775000", "120719.385000", "120719.995000", "120720.605000", "120721.215000", "120721.825000", "120722.435000", "120723.045000", "120723.655000", "120724.265000", "120724.875000", "120725.485000", "120726.095000", "120726.705000", "120727.315000", "120727.925000", "120728.535000", "120729.145000", "120729.755000", "120730.365000", "120730.975000", "120731.585000", "120732.195000", "120732.805000", "120733.415000", "120734.025000", "120734.635000", "120735.245000", "120735.855000", "120736.465000", "120737.075000", "120737.685000", "120738.295000", "120738.905000", "120739.515000", "120740.125000", "120740.735000", "120741.345000", "120741.955000", "120742.565000", "120743.175000", "120743.785000", "120744.395000", "120745.005000", "120745.615000", "120746.225000", "120746.835000", "120747.445000", "120748.055000", "120748.665000", "120749.275000", "120749.885000", "120750.495000", "120751.105000", "120751.715000", "120752.325000", "120752.935000", "120753.545000", "120754.155000", "120754.765000", "120755.375000", "120755.985000", "120756.595000", "120757.205000", "120757.815000", "120758.425000", "120759.035000", "120759.645000", "120800.255000", "120800.865000", "120801.475000", "120802.085000", "120802.695000", "120803.305000", "120803.915000", "120804.525000", "120805.135000", "120805.745000", "120806.355000", "120806.965000", "120807.575000", "120808.185000", "120808.795000", "120809.405000", "120810.015000", "120810.625000", "120811.235000", "120811.845000", "120812.455000", "120813.065000", "120813.675000", "120814.285000", "120814.895000", "120815.505000", "120816.115000", "120816.725000", "120817.335000", "120817.945000", "120818.555000", "120819.165000", "120819.775000", "120820.385000", "120820.995000", "120821.605000", "120822.215000", "120822.825000", "120823.435000", "120824.045000", "120824.655000", "120825.265000", "120825.875000", "120826.485000", "120827.095000", "120827.705000", "120828.315000", "120828.925000", "120829.535000", "120830.145000", "120830.755000", "120831.365000", "120831.975000", "120832.585000", "120833.195000"], "ContentTime": ["120347.643000", "120347.646000", "120347.649000", "120347.651000", "120347.653000", "120347.656000", "120347.663000", "120347.666000", "120347.668000", "120347.676000", "120347.678000", "120347.681000", "120347.683000", "120347.685000", "120347.688000", "120347.690000", "120347.693000", "120347.695000", "120347.697000", "120347.700000", "120347.702000", "120347.705000", "120347.716000", "120347.719000", "120347.721000", "120347.730000", "120347.732000", "120347.735000", "120347.737000", "120347.740000", "120347.742000", "120347.744000", "120347.747000", "120347.749000", "120347.751000", "120347.754000", "120347.756000", "120347.759000", "120347.761000", "120347.763000", "120407.505000", "120407.508000", "120407.510000", "120407.513000", "120407.515000", "120407.517000", "120407.520000", "120407.522000", "120407.524000", "120407.527000", "120407.529000", "120407.531000", "120407.534000", "120407.536000", "120407.539000", "120407.541000", "120407.543000", "120407.546000", "120407.548000", "120407.551000", "120407.553000", "120407.555000", "120407.558000", "120407.560000", "120407.562000", "120407.565000", "120407.567000", "120407.570000", "120407.572000", "120407.574000", "120407.577000", "120407.579000", "120407.581000", "120427.506000", "120427.509000", "120427.511000", "120427.513000", "120427.516000", "120427.518000", "120427.521000", "120427.523000", "120427.525000", "120427.528000", "120427.536000", "120427.538000", "120427.541000", "120427.543000", "120427.546000", "120427.548000", "120427.550000", "120427.553000", "120427.555000", "120427.557000", "120427.560000", "120427.562000", "120427.565000", "120427.567000", "120427.569000", "120427.572000", "120427.574000", "120427.577000", "120427.579000", "120427.581000", "120427.584000", "120427.586000", "120427.588000", "120447.506000", "120447.509000", "120447.511000", "120447.514000", "120447.516000", "120447.519000", "120447.521000", "120447.524000", "120447.527000", "120447.529000", "120447.532000", "120447.534000", "120447.536000", "120447.539000", "120447.541000", "120447.543000", "120447.546000", "120447.549000", "120447.552000", "120447.554000", "120447.557000", "120447.559000", "120447.562000", "120447.564000", "120447.566000", "120447.569000", "120447.571000", "120447.573000", "120447.576000", "120447.578000", "120447.580000", "120447.583000", "120507.505000", "120507.508000", "120507.510000", "120507.512000", "120507.515000", "120507.517000", "120507.519000", "120507.522000", "120507.524000", "120507.527000", "120507.529000", "120507.531000", "120507.534000", "120507.536000", "120507.538000", "120507.541000", "120507.543000", "120507.545000", "120507.548000", "120507.550000", "120507.553000", "120507.555000", "120507.558000", "120507.560000", "120507.562000", "120507.565000", "120507.567000", "120507.569000", "120507.572000", "120507.574000", "120507.577000", "120507.579000", "120507.581000", "120527.505000", "120527.508000", "120527.510000", "120527.513000", "120527.515000", "120527.548000", "120527.550000", "120527.553000", "120527.555000", "120527.558000", "120527.560000", "120527.562000", "120527.565000", "120527.567000", "120527.570000", "120527.572000", "120527.574000", "120527.577000", "120527.579000", "120527.582000", "120527.584000", "120527.587000", "120527.589000", "120527.592000", "120527.594000", "120527.596000", "120527.599000", "120527.601000", "120527.603000", "120527.606000", "120527.608000", "120527.611000", "120527.613000", "120547.505000", "120547.508000", "120547.510000", "120547.512000", "120547.515000", "120547.517000", "120547.520000", "120547.522000", "120547.524000", "120547.527000", "120547.529000", "120547.531000", "120547.534000", "120547.536000", "120547.539000", "120547.541000", "120547.543000", "120547.546000", "120547.548000", "120547.550000", "120547.553000", "120547.555000", "120547.557000", "120547.560000", "120547.562000", "120547.564000", "120547.567000", "120547.569000", "120547.571000", "120547.574000", "120547.576000", "120547.579000", "120547.581000", "120607.505000", "120607.508000", "120607.510000", "120607.513000", "120607.515000", "120607.517000", "120607.520000", "120607.522000", "120607.525000", "120607.527000", "120607.530000", "120607.532000", "120607.534000", "120607.537000", "120607.539000", "120607.541000", "120607.544000", "120607.546000", "120607.549000", "120607.551000", "120607.553000", "120607.556000", "120607.558000", "120607.561000", "120607.563000", "120607.565000", "120607.568000", "120607.570000", "120607.573000", "120607.575000", "120607.577000", "120607.580000", "120607.582000", "120627.505000", "120627.508000", "120627.510000", "120627.513000", "120627.515000", "120627.518000", "120627.520000", "120627.522000", "120627.525000", "120627.527000", "120627.530000", "120627.532000", "120627.534000", "120627.537000", "120627.539000", "120627.542000", "120627.544000", "120627.546000", "120627.549000", "120627.551000", "120627.554000", "120627.556000", "120627.559000", "120627.562000", "120627.564000", "120627.567000", "120627.569000", "120627.583000", "120627.586000", "120627.588000", "120627.591000", "120627.593000", "120647.506000", "120647.509000", "120647.511000", "120647.514000", "120647.516000", "120647.518000", "120647.521000", "120647.523000", "120647.526000", "120647.528000", "120647.531000", "120647.533000", "120647.536000", "120647.539000", "120647.541000", "120647.544000", "120647.546000", "120647.548000", "120647.558000", "120647.561000", "120647.563000", "120647.565000", "120647.568000", "120647.570000", "120647.573000", "120647.575000", "120647.578000", "120647.580000", "120647.582000", "120647.585000", "120647.587000", "120647.590000", "120647.593000", "120707.506000", "120707.509000", "120707.511000", "120707.514000", "120707.516000", "120707.519000", "120707.521000", "120707.524000", "120707.526000", "120707.528000", "120707.531000", "120707.533000", "120707.535000", "120707.538000", "120707.540000", "120707.542000", "120707.545000", "120707.547000", "120707.549000", "120707.552000", "120707.554000", "120707.557000", "120707.559000", "120707.562000", "120707.564000", "120707.566000", "120707.569000", "120707.571000", "120707.574000", "120707.576000", "120707.578000", "120707.581000", "120707.583000", "120727.505000", "120727.508000", "120727.510000", "120727.512000", "120727.515000", "120727.517000", "120727.520000", "120727.522000", "120727.525000", "120727.527000", "120727.529000", "120727.532000", "120727.534000", "120727.536000", "120727.539000", "120727.541000", "120727.544000", "120727.546000", "120727.548000", "120727.551000", "120727.553000", "120727.555000", "120727.558000", "120727.560000", "120727.568000", "120727.571000", "120727.573000", "120727.575000", "120727.578000", "120727.580000", "120727.583000", "120727.585000", "120727.587000", "120747.505000", "120747.508000", "120747.510000", "120747.513000", "120747.515000", "120747.518000", "120747.520000", "120747.522000", "120747.525000", "120747.527000", "120747.529000", "120747.532000", "120747.534000", "120747.542000", "120747.545000", "120747.547000", "120747.549000", "120747.552000", "120747.554000", "120747.557000", "120747.559000", "120747.562000", "120747.564000", "120747.566000", "120747.569000", "120747.571000", "120747.573000", "120747.576000", "120747.578000", "120747.581000", "120747.583000", "120747.586000", "120747.588000", "120807.505000", "120807.508000", "120807.510000", "120807.512000", "120807.515000", "120807.517000", "120807.520000", "120807.522000", "120807.525000", "120807.527000", "120807.529000", "120807.532000", "120807.534000", "120807.536000", "120807.539000", "120807.541000", "120807.544000", "120807.546000", "120807.557000", "120807.559000", "120807.562000", "120807.564000", "120807.567000", "120807.569000", "120807.571000", "120807.574000", "120807.576000", "120807.579000", "120807.581000", "120807.583000", "120807.586000", "120807.589000", "120827.505000", "120827.508000", "120827.510000", "120827.513000", "120827.515000", "120827.517000", "120827.520000", "120827.522000", "120827.525000", "120827.527000", "120827.529000", "120827.532000", "120827.534000", "120827.537000", "120827.539000", "120827.541000", "120827.544000", "120827.546000", "120827.548000", "120827.551000", "120827.553000", "120827.555000", "120827.558000", "120827.560000", "120827.563000", "120827.565000", "120827.567000", "120827.570000", "120827.572000", "120827.575000", "120827.578000", "120827.580000", "120827.582000", "120833.803000", "120833.806000", "120833.808000", "120833.811000", "120833.813000", "120833.816000", "120833.818000", "120833.820000", "120833.823000", "120833.825000", "120833.828000"], "InstanceCreationTime": ["120347.643000", "120347.646000", "120347.649000", "120347.651000", "120347.653000", "120347.656000", "120347.663000", "120347.666000", "120347.668000", "120347.676000", "120347.678000", "120347.681000", "120347.683000", "120347.685000", "120347.688000", "120347.690000", "120347.693000", "120347.695000", "120347.697000", "120347.700000", "120347.702000", "120347.705000", "120347.716000", "120347.719000", "120347.721000", "120347.730000", "120347.732000", "120347.735000", "120347.737000", "120347.740000", "120347.742000", "120347.744000", "120347.747000", "120347.749000", "120347.751000", "120347.754000", "120347.756000", "120347.759000", "120347.761000", "120347.763000", "120407.505000", "120407.508000", "120407.510000", "120407.513000", "120407.515000", "120407.517000", "120407.520000", "120407.522000", "120407.524000", "120407.527000", "120407.529000", "120407.531000", "120407.534000", "120407.536000", "120407.539000", "120407.541000", "120407.543000", "120407.546000", "120407.548000", "120407.551000", "120407.553000", "120407.555000", "120407.558000", "120407.560000", "120407.562000", "120407.565000", "120407.567000", "120407.570000", "120407.572000", "120407.574000", "120407.577000", "120407.579000", "120407.581000", "120427.506000", "120427.509000", "120427.511000", "120427.513000", "120427.516000", "120427.518000", "120427.521000", "120427.523000", "120427.525000", "120427.528000", "120427.536000", "120427.538000", "120427.541000", "120427.543000", "120427.546000", "120427.548000", "120427.550000", "120427.553000", "120427.555000", "120427.557000", "120427.560000", "120427.562000", "120427.565000", "120427.567000", "120427.569000", "120427.572000", "120427.574000", "120427.577000", "120427.579000", "120427.581000", "120427.584000", "120427.586000", "120427.588000", "120447.506000", "120447.509000", "120447.511000", "120447.514000", "120447.516000", "120447.519000", "120447.521000", "120447.524000", "120447.527000", "120447.529000", "120447.532000", "120447.534000", "120447.536000", "120447.539000", "120447.541000", "120447.543000", "120447.546000", "120447.549000", "120447.552000", "120447.554000", "120447.557000", "120447.559000", "120447.562000", "120447.564000", "120447.566000", "120447.569000", "120447.571000", "120447.573000", "120447.576000", "120447.578000", "120447.580000", "120447.583000", "120507.505000", "120507.508000", "120507.510000", "120507.512000", "120507.515000", "120507.517000", "120507.519000", "120507.522000", "120507.524000", "120507.527000", "120507.529000", "120507.531000", "120507.534000", "120507.536000", "120507.538000", "120507.541000", "120507.543000", "120507.545000", "120507.548000", "120507.550000", "120507.553000", "120507.555000", "120507.558000", "120507.560000", "120507.562000", "120507.565000", "120507.567000", "120507.569000", "120507.572000", "120507.574000", "120507.577000", "120507.579000", "120507.581000", "120527.505000", "120527.508000", "120527.510000", "120527.513000", "120527.515000", "120527.548000", "120527.550000", "120527.553000", "120527.555000", "120527.558000", "120527.560000", "120527.562000", "120527.565000", "120527.567000", "120527.570000", "120527.572000", "120527.574000", "120527.577000", "120527.579000", "120527.582000", "120527.584000", "120527.587000", "120527.589000", "120527.592000", "120527.594000", "120527.596000", "120527.599000", "120527.601000", "120527.603000", "120527.606000", "120527.608000", "120527.611000", "120527.613000", "120547.505000", "120547.508000", "120547.510000", "120547.512000", "120547.515000", "120547.517000", "120547.520000", "120547.522000", "120547.524000", "120547.527000", "120547.529000", "120547.531000", "120547.534000", "120547.536000", "120547.539000", "120547.541000", "120547.543000", "120547.546000", "120547.548000", "120547.550000", "120547.553000", "120547.555000", "120547.557000", "120547.560000", "120547.562000", "120547.564000", "120547.567000", "120547.569000", "120547.571000", "120547.574000", "120547.576000", "120547.579000", "120547.581000", "120607.505000", "120607.508000", "120607.510000", "120607.513000", "120607.515000", "120607.517000", "120607.520000", "120607.522000", "120607.525000", "120607.527000", "120607.530000", "120607.532000", "120607.534000", "120607.537000", "120607.539000", "120607.541000", "120607.544000", "120607.546000", "120607.549000", "120607.551000", "120607.553000", "120607.556000", "120607.558000", "120607.561000", "120607.563000", "120607.565000", "120607.568000", "120607.570000", "120607.573000", "120607.575000", "120607.577000", "120607.580000", "120607.582000", "120627.505000", "120627.508000", "120627.510000", "120627.513000", "120627.515000", "120627.518000", "120627.520000", "120627.522000", "120627.525000", "120627.527000", "120627.530000", "120627.532000", "120627.534000", "120627.537000", "120627.539000", "120627.542000", "120627.544000", "120627.546000", "120627.549000", "120627.551000", "120627.554000", "120627.556000", "120627.559000", "120627.562000", "120627.564000", "120627.567000", "120627.569000", "120627.583000", "120627.586000", "120627.588000", "120627.591000", "120627.593000", "120647.506000", "120647.509000", "120647.511000", "120647.514000", "120647.516000", "120647.518000", "120647.521000", "120647.523000", "120647.526000", "120647.528000", "120647.531000", "120647.533000", "120647.536000", "120647.539000", "120647.541000", "120647.544000", "120647.546000", "120647.548000", "