{"AcquisitionMatrixPE": 64, "AcquisitionNumber": 1, "AcquisitionTime": "12:04:24.727500", "BandwidthPerPixelPhaseEncode": 28.935, "BaseResolution": 64, "BodyPartExamined": "BRAIN", "CoilCombinationMethod": "Sum of Squares", "ConsistencyInfo": "N4_VE11E_LATEST_20181129", "ConversionSoftware": "dcm2niix", "ConversionSoftwareVersion": "v1.0.20230411", "DerivedVendorReportedEchoSpacing": 0.000540003, "DeviceSerialNumber": "166182", "DwellTime": 3.4e-06, "EchoTime": 0.032, "EchoTrainLength": 64, "EffectiveEchoSpacing": 0.000540003, "FlipAngle": 40, "HeudiconvVersion": "0.13.1", "ImageOrientationPatientDICOM": [0.994255, 0.0438566, -0.0976401, -0.0521067, 0.995135, -0.0836135], "ImageOrientationText": "Tra>Sag(-5.4)>Cor(-5.1)", "ImageType": ["ORIGINAL", "PRIMARY", "M", "ND", "NORM", "MOSAIC"], "ImagingFrequency": 123.256459, "InPlanePhaseEncodingDirectionDICOM": "COL", "InstitutionAddress": "PEARSE STREET .,City,District,IE,D2", "InstitutionName": "TCIN", "InstitutionalDepartmentName": "MRI", "MRAcquisitionType": "2D", "MagneticFieldStrength": 3, "Manufacturer": "Siemens", "ManufacturersModelName": "Prisma", "Modality": "MR", "MultibandAccelerationFactor": 4, "NonlinearGradientCorrection": false, "PartialFourier": 1, "PatientPosition": "HFS", "PercentPhaseFOV": 100, "PercentSampling": 100, "PhaseEncodingDirection": "j-", "PhaseEncodingSteps": 64, "PhaseResolution": 1, "PixelBandwidth": 2300, "ProcedureStepDescription": "Rhodri^Head BOLD", "ProtocolName": "cmrr_mbep2d_Pictures_AP_RDS", "PulseSequenceDetails": "%SiemensSeq%\\ep2d_bold", "ReceiveCoilActiveElements": "HC2,4,6,7;SC", "ReceiveCoilName": "SpecialPurpose_4", "ReconMatrixPE": 64, "RefLinesPE": 12, "RepetitionTime": 0.61, "SAR": 0.295107, "ScanOptions": "FS", "ScanningSequence": "EP", "SequenceName": "*epfid2d1_64", "SequenceVariant": "SK", "SeriesDescription": "cmrr_mbep2d_Pictures_AP_RDS", "SeriesNumber": 8, "ShimSetting": [-3603, -7322, 3721, 1070, -63, -287, -67, -9], "SliceThickness": 3, "SliceTiming": [0.2625, 0, 0.3275, 0.065, 0.3925, 0.13, 0.46, 0.1975, 0.525, 0.2625, 0, 0.3275, 0.065, 0.3925, 0.13, 0.46, 0.1975, 0.525, 0.2625, 0, 0.3275, 0.065, 0.3925, 0.13, 0.46, 0.1975, 0.525, 0.2625, 0, 0.3275, 0.065, 0.3925, 0.13, 0.46, 0.1975, 0.525], "SoftwareVersions": "syngo MR E11", "SpacingBetweenSlices": 3.3, "StationName": "AWP166182", "TaskName": "pictures", "TotalReadoutTime": 0.0340202, "TxRefAmp": 245.787, "dcmmeta_affine": [[-2.982764959335327, -0.1563199907541275, -0.3085435628890991, 107.2613296508789], [-0.13156993687152863, 2.9854049682617188, -0.2911287546157837, -94.89459228515625], [-0.29292023181915283, 0.2508404850959778, 3.272620439529419, -101.60264587402344], [0.0, 0.0, 0.0, 1.0]], "dcmmeta_reorient_transform": [[0.0, -1.0, 0.0, 63.0], [1.0, 0.0, 0.0, 0.0], [0.0, 0.0, 1.0, 0.0], [0.0, 0.0, 0.0, 1.0]], "dcmmeta_shape": [64, 64, 36, 510], "dcmmeta_slice_dim": 2, "dcmmeta_version": 0.6, "global": {"const": {"AcquisitionMatrix": [64, 0, 0, 64], "AngioFlag": "N", "BitsAllocated": 16, "BitsStored": 12, "BodyPartExamined": "BRAIN", "Columns": 384, "EchoNumbers": 1, "EchoTime": 32.0, "EchoTrainLength": 64, "FlipAngle": 40.0, "HighBit": 11, "ImageOrientationPatient": [0.99425500268701, 0.04385664398509, -0.0976400758409, -0.0521066623308, 0.99513500546805, -0.0836134955187], "ImagePositionPatient": [-549.64437205042, -591.90191192873, 1.2020220079211], "ImageType": ["ORIGINAL", "PRIMARY", "M", "ND", "NORM", "MOSAIC"], "ImagedNucleus": "1H", "ImagingFrequency": 123.256459, "InPlanePhaseEncodingDirection": "COL", "MRAcquisitionType": "2D", "MagneticFieldStrength": 3.0, "Manufacturer": "SIEMENS", "ManufacturerModelName": "Prisma", "Modality": "MR", "NumberOfAverages": 1.0, "NumberOfPhaseEncodingSteps": 64, "PercentPhaseFieldOfView": 100.0, "PercentSampling": 100.0, "PerformedProcedureStepStartTime": "115122.618000", "PhotometricInterpretation": "MONOCHROME2", "PixelBandwidth": 2300.0, "PixelRepresentation": 0, "PixelSpacing": [3.0, 3.0], "ProtocolName": "cmrr_mbep2d_Pictures_AP_RDS", "RepetitionTime": 610.0, "Rows": 384, "SAR": 0.29510738163245, "SamplesPerPixel": 1, "ScanOptions": "FS", "ScanningSequence": "EP", "SequenceName": "*epfid2d1_64", "SequenceVariant": "SK", "SeriesDescription": "cmrr_mbep2d_Pictures_AP_RDS", "SeriesNumber": 8, "SeriesTime": "120447.028000", "SliceLocation": -102.41670870185, "SliceThickness": 3.0, "SmallestImagePixelValue": 0, "SoftwareVersions": "syngo MR E11", "SpacingBetweenSlices": 3.3000000565302, "SpecificCharacterSet": "ISO_IR 100", "StudyID": "1", "StudyTime": "115122.540000", "TransmitCoilName": "Body", "VariableFlipAngleFlag": "N", "WindowCenterWidthExplanation": "Algo1"}, "slices": {}}, "time": {"samples": {"AcquisitionNumber": [1, 2, 3, 4, 5, 6, 7, 8, 9, 10, 11, 12, 13, 14, 15, 16, 17, 18, 19, 20, 21, 22, 23, 24, 25, 26, 27, 28, 29, 30, 31, 32, 33, 34, 35, 36, 37, 38, 39, 40, 41, 42, 43, 44, 45, 46, 47, 48, 49, 50, 51, 52, 53, 54, 55, 56, 57, 58, 59, 60, 61, 62, 63, 64, 65, 66, 67, 68, 69, 70, 71, 72, 73, 74, 75, 76, 77, 78, 79, 80, 81, 82, 83, 84, 85, 86, 87, 88, 89, 90, 91, 92, 93, 94, 95, 96, 97, 98, 99, 100, 101, 102, 103, 104, 105, 106, 107, 108, 109, 110, 111, 112, 113, 114, 115, 116, 117, 118, 119, 120, 121, 122, 123, 124, 125, 126, 127, 128, 129, 130, 131, 132, 133, 134, 135, 136, 137, 138, 139, 140, 141, 142, 143, 144, 145, 146, 147, 148, 149, 150, 151, 152, 153, 154, 155, 156, 157, 158, 159, 160, 161, 162, 163, 164, 165, 166, 167, 168, 169, 170, 171, 172, 173, 174, 175, 176, 177, 178, 179, 180, 181, 182, 183, 184, 185, 186, 187, 188, 189, 190, 191, 192, 193, 194, 195, 196, 197, 198, 199, 200, 201, 202, 203, 204, 205, 206, 207, 208, 209, 210, 211, 212, 213, 214, 215, 216, 217, 218, 219, 220, 221, 222, 223, 224, 225, 226, 227, 228, 229, 230, 231, 232, 233, 234, 235, 236, 237, 238, 239, 240, 241, 242, 243, 244, 245, 246, 247, 248, 249, 250, 251, 252, 253, 254, 255, 256, 257, 258, 259, 260, 261, 262, 263, 264, 265, 266, 267, 268, 269, 270, 271, 272, 273, 274, 275, 276, 277, 278, 279, 280, 281, 282, 283, 284, 285, 286, 287, 288, 289, 290, 291, 292, 293, 294, 295, 296, 297, 298, 299, 300, 301, 302, 303, 304, 305, 306, 307, 308, 309, 310, 311, 312, 313, 314, 315, 316, 317, 318, 319, 320, 321, 322, 323, 324, 325, 326, 327, 328, 329, 330, 331, 332, 333, 334, 335, 336, 337, 338, 339, 340, 341, 342, 343, 344, 345, 346, 347, 348, 349, 350, 351, 352, 353, 354, 355, 356, 357, 358, 359, 360, 361, 362, 363, 364, 365, 366, 367, 368, 369, 370, 371, 372, 373, 374, 375, 376, 377, 378, 379, 380, 381, 382, 383, 384, 385, 386, 387, 388, 389, 390, 391, 392, 393, 394, 395, 396, 397, 398, 399, 400, 401, 402, 403, 404, 405, 406, 407, 408, 409, 410, 411, 412, 413, 414, 415, 416, 417, 418, 419, 420, 421, 422, 423, 424, 425, 426, 427, 428, 429, 430, 431, 432, 433, 434, 435, 436, 437, 438, 439, 440, 441, 442, 443, 444, 445, 446, 447, 448, 449, 450, 451, 452, 453, 454, 455, 456, 457, 458, 459, 460, 461, 462, 463, 464, 465, 466, 467, 468, 469, 470, 471, 472, 473, 474, 475, 476, 477, 478, 479, 480, 481, 482, 483, 484, 485, 486, 487, 488, 489, 490, 491, 492, 493, 494, 495, 496, 497, 498, 499, 500, 501, 502, 503, 504, 505, 506, 507, 508, 509, 510], "AcquisitionTime": ["120424.727500", "120425.337500", "120425.947500", "120426.557500", "120427.167500", "120427.777500", "120428.387500", "120428.997500", "120429.607500", "120430.217500", "120430.827500", "120431.437500", "120432.047500", "120432.657500", "120433.267500", "120433.877500", "120434.487500", "120435.097500", "120435.707500", "120436.317500", "120436.927500", "120437.537500", "120438.147500", "120438.757500", "120439.367500", "120439.977500", "120440.587500", "120441.197500", "120441.807500", "120442.417500", "120443.027500", "120443.637500", "120444.247500", "120444.857500", "120445.467500", "120446.077500", "120446.687500", "120447.297500", "120447.907500", "120448.517500", "120449.127500", "120449.737500", "120450.347500", "120450.957500", "120451.567500", "120452.177500", "120452.787500", "120453.397500", "120454.007500", "120454.617500", "120455.227500", "120455.837500", "120456.447500", "120457.057500", "120457.667500", "120458.277500", "120458.887500", "120459.497500", "120500.107500", "120500.717500", "120501.327500", "120501.937500", "120502.547500", "120503.157500", "120503.767500", "120504.377500", "120504.987500", "120505.597500", "120506.207500", "120506.817500", "120507.427500", "120508.037500", "120508.647500", "120509.257500", "120509.867500", "120510.477500", "120511.087500", "120511.697500", "120512.307500", "120512.917500", "120513.527500", "120514.137500", "120514.747500", "120515.357500", "120515.967500", "120516.577500", "120517.187500", "120517.797500", "120518.407500", "120519.017500", "120519.627500", "120520.237500", "120520.847500", "120521.457500", "120522.067500", "120522.677500", "120523.287500", "120523.897500", "120524.507500", "120525.117500", "120525.727500", "120526.337500", "120526.947500", "120527.557500", "120528.167500", "120528.777500", "120529.387500", "120529.997500", "120530.607500", "120531.217500", "120531.827500", "120532.437500", "120533.047500", "120533.657500", "120534.267500", "120534.877500", "120535.487500", "120536.097500", "120536.707500", "120537.317500", "120537.927500", "120538.537500", "120539.147500", "120539.757500", "120540.367500", "120540.977500", "120541.587500", "120542.197500", "120542.807500", "120543.417500", "120544.027500", "120544.637500", "120545.247500", "120545.857500", "120546.467500", "120547.077500", "120547.687500", "120548.297500", "120548.907500", "120549.517500", "120550.127500", "120550.737500", "120551.347500", "120551.957500", "120552.567500", "120553.177500", "120553.787500", "120554.397500", "120555.007500", "120555.617500", "120556.227500", "120556.837500", "120557.447500", "120558.057500", "120558.667500", "120559.277500", "120559.887500", "120600.497500", "120601.107500", "120601.717500", "120602.327500", "120602.937500", "120603.547500", "120604.157500", "120604.767500", "120605.377500", "120605.987500", "120606.597500", "120607.207500", "120607.817500", "120608.427500", "120609.037500", "120609.647500", "120610.257500", "120610.867500", "120611.477500", "120612.087500", "120612.697500", "120613.307500", "120613.917500", "120614.527500", "120615.137500", "120615.747500", "120616.357500", "120616.967500", "120617.577500", "120618.187500", "120618.797500", "120619.407500", "120620.017500", "120620.627500", "120621.237500", "120621.847500", "120622.457500", "120623.067500", "120623.677500", "120624.287500", "120624.897500", "120625.507500", "120626.117500", "120626.727500", "120627.337500", "120627.947500", "120628.557500", "120629.167500", "120629.777500", "120630.387500", "120630.997500", "120631.607500", "120632.217500", "120632.827500", "120633.437500", "120634.047500", "120634.657500", "120635.267500", "120635.877500", "120636.487500", "120637.097500", "120637.707500", "120638.317500", "120638.927500", "120639.537500", "120640.147500", "120640.757500", "120641.367500", "120641.977500", "120642.587500", "120643.197500", "120643.807500", "120644.417500", "120645.027500", "120645.637500", "120646.247500", "120646.857500", "120647.467500", "120648.077500", "120648.687500", "120649.297500", "120649.907500", "120650.517500", "120651.127500", "120651.737500", "120652.347500", "120652.957500", "120653.567500", "120654.177500", "120654.787500", "120655.397500", "120656.007500", "120656.617500", "120657.227500", "120657.837500", "120658.447500", "120659.057500", "120659.667500", "120700.277500", "120700.887500", "120701.497500", "120702.107500", "120702.717500", "120703.327500", "120703.937500", "120704.547500", "120705.157500", "120705.767500", "120706.377500", "120706.987500", "120707.597500", "120708.207500", "120708.817500", "120709.427500", "120710.037500", "120710.647500", "120711.257500", "120711.867500", "120712.477500", "120713.087500", "120713.697500", "120714.307500", "120714.917500", "120715.527500", "120716.137500", "120716.747500", "120717.357500", "120717.967500", "120718.577500", "120719.187500", "120719.797500", "120720.407500", "120721.017500", "120721.627500", "120722.237500", "120722.847500", "120723.457500", "120724.067500", "120724.677500", "120725.287500", "120725.897500", "120726.507500", "120727.117500", "120727.727500", "120728.337500", "120728.947500", "120729.557500", "120730.167500", "120730.777500", "120731.387500", "120731.997500", "120732.607500", "120733.217500", "120733.827500", "120734.437500", "120735.047500", "120735.657500", "120736.267500", "120736.877500", "120737.487500", "120738.097500", "120738.707500", "120739.317500", "120739.927500", "120740.537500", "120741.147500", "120741.757500", "120742.367500", "120742.977500", "120743.587500", "120744.197500", "120744.807500", "120745.417500", "120746.027500", "120746.637500", "120747.247500", "120747.857500", "120748.467500", "120749.077500", "120749.687500", "120750.297500", "120750.907500", "120751.517500", "120752.127500", "120752.737500", "120753.347500", "120753.957500", "120754.567500", "120755.177500", "120755.787500", "120756.397500", "120757.007500", "120757.617500", "120758.227500", "120758.837500", "120759.447500", "120800.057500", "120800.667500", "120801.277500", "120801.887500", "120802.497500", "120803.107500", "120803.717500", "120804.327500", "120804.937500", "120805.547500", "120806.157500", "120806.767500", "120807.377500", "120807.987500", "120808.597500", "120809.207500", "120809.817500", "120810.427500", "120811.037500", "120811.647500", "120812.257500", "120812.867500", "120813.477500", "120814.087500", "120814.697500", "120815.307500", "120815.917500", "120816.527500", "120817.137500", "120817.747500", "120818.357500", "120818.967500", "120819.577500", "120820.187500", "120820.797500", "120821.407500", "120822.017500", "120822.627500", "120823.237500", "120823.847500", "120824.457500", "120825.067500", "120825.677500", "120826.287500", "120826.897500", "120827.507500", "120828.117500", "120828.727500", "120829.337500", "120829.947500", "120830.557500", "120831.167500", "120831.777500", "120832.387500", "120832.997500", "120833.607500", "120834.217500", "120834.827500", "120835.437500", "120836.047500", "120836.657500", "120837.267500", "120837.877500", "120838.487500", "120839.097500", "120839.707500", "120840.317500", "120840.927500", "120841.537500", "120842.147500", "120842.757500", "120843.367500", "120843.977500", "120844.587500", "120845.197500", "120845.807500", "120846.417500", "120847.027500", "120847.637500", "120848.247500", "120848.857500", "120849.467500", "120850.077500", "120850.687500", "120851.297500", "120851.907500", "120852.517500", "120853.127500", "120853.737500", "120854.347500", "120854.957500", "120855.567500", "120856.177500", "120856.787500", "120857.397500", "120858.007500", "120858.617500", "120859.227500", "120859.837500", "120900.447500", "120901.057500", "120901.667500", "120902.277500", "120902.887500", "120903.497500", "120904.107500", "120904.717500", "120905.327500", "120905.937500", "120906.547500", "120907.157500", "120907.767500", "120908.377500", "120908.987500", "120909.597500", "120910.207500", "120910.817500", "120911.427500", "120912.037500", "120912.647500", "120913.257500", "120913.867500", "120914.477500", "120915.087500", "120915.697500", "120916.307500", "120916.917500", "120917.527500", "120918.137500", "120918.747500", "120919.357500", "120919.967500", "120920.577500", "120921.187500", "120921.797500", "120922.407500", "120923.017500", "120923.627500", "120924.237500", "120924.847500", "120925.457500", "120926.067500", "120926.677500", "120927.287500", "120927.897500", "120928.507500", "120929.117500", "120929.727500", "120930.337500", "120930.947500", "120931.557500", "120932.167500", "120932.777500", "120933.387500", "120933.997500", "120934.607500", "120935.217500"], "ContentTime": ["120447.031000", "120447.034000", "120447.037000", "120447.039000", "120447.041000", "120447.044000", "120447.046000", "120447.049000", "120447.051000", "120447.054000", "120447.056000", "120447.058000", "120447.061000", "120447.063000", "120447.066000", "120447.072000", "120447.075000", "120447.078000", "120447.081000", "120447.083000", "120447.086000", "120447.088000", "120447.091000", "120447.093000", "120447.095000", "120447.098000", "120447.103000", "120447.105000", "120447.108000", "120447.110000", "120447.113000", "120447.115000", "120447.117000", "120447.120000", "120447.122000", "120507.026000", "120507.029000", "120507.031000", "120507.034000", "120507.036000", "120507.039000", "120507.041000", "120507.044000", "120507.046000", "120507.049000", "120507.051000", "120507.053000", "120507.056000", "120507.058000", "120507.061000", "120507.063000", "120507.065000", "120507.068000", "120507.070000", "120507.073000", "120507.075000", "120507.077000", "120507.080000", "120507.082000", "120507.085000", "120507.092000", "120507.094000", "120507.097000", "120507.099000", "120507.102000", "120507.104000", "120507.107000", "120507.109000", "120527.026000", "120527.029000", "120527.032000", "120527.034000", "120527.037000", "120527.039000", "120527.042000", "120527.044000", "120527.046000", "120527.057000", "120527.059000", "120527.062000", "120527.064000", "120527.067000", "120527.072000", "120527.075000", "120527.077000", "120527.079000", "120527.082000", "120527.084000", "120527.087000", "120527.089000", "120527.091000", "120527.094000", "120527.096000", "120527.098000", "120527.101000", "120527.103000", "120527.106000", "120527.108000", "120527.110000", "120527.113000", "120527.115000", "120547.025000", "120547.028000", "120547.030000", "120547.032000", "120547.035000", "120547.037000", "120547.040000", "120547.042000", "120547.045000", "120547.047000", "120547.049000", "120547.052000", "120547.054000", "120547.056000", "120547.059000", "120547.061000", "120547.079000", "120547.081000", "120547.083000", "120547.086000", "120547.088000", "120547.090000", "120547.093000", "120547.095000", "120547.097000", "120547.100000", "120547.102000", "120547.105000", "120547.107000", "120547.110000", "120547.112000", "120547.114000", "120547.127000", "120607.026000", "120607.029000", "120607.031000", "120607.034000", "120607.036000", "120607.038000", "120607.041000", "120607.043000", "120607.046000", "120607.048000", "120607.050000", "120607.053000", "120607.055000", "120607.057000", "120607.060000", "120607.062000", "120607.064000", "120607.067000", "120607.069000", "120607.072000", "120607.074000", "120607.076000", "120607.079000", "120607.081000", "120607.084000", "120607.086000", "120607.088000", "120607.091000", "120607.093000", "120607.095000", "120607.098000", "120607.100000", "120627.026000", "120627.029000", "120627.036000", "120627.039000", "120627.041000", "120627.044000", "120627.046000", "120627.048000", "120627.051000", "120627.053000", "120627.056000", "120627.058000", "120627.061000", "120627.063000", "120627.065000", "120627.068000", "120627.070000", "120627.073000", "120627.075000", "120627.077000", "120627.080000", "120627.082000", "120627.085000", "120627.087000", "120627.090000", "120627.092000", "120627.095000", "120627.097000", "120627.099000", "120627.102000", "120627.104000", "120627.107000", "120627.109000", "120647.026000", "120647.029000", "120647.032000", "120647.034000", "120647.037000", "120647.039000", "120647.041000", "120647.044000", "120647.046000", "120647.049000", "120647.051000", "120647.054000", "120647.056000", "120647.058000", "120647.061000", "120647.063000", "120647.066000", "120647.068000", "120647.071000", "120647.073000", "120647.075000", "120647.078000", "120647.080000", "120647.082000", "120647.085000", "120647.087000", "120647.090000", "120647.092000", "120647.094000", "120647.097000", "120647.099000", "120647.102000", "120647.104000", "120707.026000", "120707.029000", "120707.032000", "120707.034000", "120707.037000", "120707.039000", "120707.042000", "120707.044000", "120707.046000", "120707.049000", "120707.051000", "120707.054000", "120707.056000", "120707.064000", "120707.066000", "120707.069000", "120707.071000", "120707.074000", "120707.076000", "120707.078000", "120707.081000", "120707.083000", "120707.086000", "120707.091000", "120707.093000", "120707.096000", "120707.098000", "120707.100000", "120707.103000", "120707.105000", "120707.108000", "120707.110000", "120707.112000", "120727.026000", "120727.029000", "120727.031000", "120727.034000", "120727.036000", "120727.039000", "120727.041000", "120727.043000", "120727.046000", "120727.048000", "120727.051000", "120727.053000", "120727.055000", "120727.058000", "120727.061000", "120727.064000", "120727.067000", "120727.069000", "120727.072000", "120727.074000", "120727.076000", "120727.079000", "120727.081000", "120727.084000", "120727.086000", "120727.088000", "120727.091000", "120727.093000", "120727.095000", "120727.098000", "120727.100000", "120727.103000", "120747.026000", "120747.029000", "120747.031000", "120747.034000", "120747.036000", "120747.039000", "120747.041000", "120747.044000", "120747.046000", "120747.048000", "120747.051000", "120747.053000", "120747.056000", "120747.058000", "120747.061000", "120747.063000", "120747.065000", "120747.068000", "120747.070000", "120747.073000", "120747.075000", "120747.078000", "120747.090000", "120747.093000", "120747.095000", "120747.097000", "120747.100000", "120747.102000", "120747.104000", "120747.107000", "120747.109000", "120747.112000", "120747.114000", "120807.025000", "120807.028000", "120807.031000", "120807.033000", "120807.035000", "120807.038000", "120807.040000", "120807.043000", "120807.045000", "120807.047000", "120807.050000", "120807.052000", "120807.054000", "120807.057000", "120807.059000", "120807.062000", "120807.064000", "120807.066000", "120807.069000", "120807.071000", "120807.074000", "120807.076000", "120807.079000", "120807.081000", "120807.083000", "120807.086000", "120807.088000", "120807.090000", "120807.093000", "120807.095000", "120807.098000", "120807.100000", "120807.102000", "120827.026000", "120827.029000", "120827.031000", "120827.034000", "120827.036000", "120827.039000", "120827.041000", "120827.044000", "120827.046000", "120827.049000", "120827.051000", "120827.053000", "120827.056000", "120827.058000", "120827.060000", "120827.063000", "120827.065000", "120827.068000", "120827.070000", "120827.072000", "120827.075000", "120827.077000", "120827.079000", "120827.082000", "120827.084000", "120827.086000", "120827.089000", "120827.091000", "120827.094000", "120827.101000", "120827.116000", "120827.119000", "120827.121000", "120847.026000", "120847.029000", "120847.031000", "120847.034000", "120847.036000", "120847.039000", "120847.041000", "120847.044000", "120847.046000", "120847.048000", "120847.051000", "120847.053000", "120847.056000", "120847.058000", "120847.061000", "120847.063000", "120847.066000", "120847.068000", "120847.070000", "120847.073000", "120847.075000", "120847.077000", "120847.080000", "120847.082000", "120847.084000", "120847.087000", "120847.098000", "120847.101000", "120847.103000", "120847.105000", "120847.108000", "120847.110000", "120847.113000", "120907.026000", "120907.029000", "120907.032000", "120907.034000", "120907.037000", "120907.039000", "120907.042000", "120907.044000", "120907.046000", "120907.049000", "120907.051000", "120907.054000", "120907.056000", "120907.058000", "120907.061000", "120907.063000", "120907.066000", "120907.068000", "120907.070000", "120907.073000", "120907.075000", "120907.077000", "120907.080000", "120907.082000", "120907.085000", "120907.087000", "120907.090000", "120907.101000", "120907.103000", "120907.106000", "120907.108000", "120907.111000", "120927.026000", "120927.029000", "120927.031000", "120927.034000", "120927.036000", "120927.039000", "120927.041000", "120927.043000", "120927.046000", "120927.048000", "120927.051000", "120927.053000", "120927.056000", "120927.058000", "120927.068000", "120927.070000", "120927.073000", "120927.075000", "120927.078000", "120927.080000", "120927.083000", "120927.085000", "120927.088000", "120927.090000", "120927.092000", "120927.095000", "120927.097000", "120927.100000", "120927.102000", "120927.104000", "120927.107000", "120927.109000", "120927.112000", "120936.338000", "120936.341000", "120936.343000", "120936.346000", "120936.348000", "120936.351000", "120936.353000", "120936.356000", "120936.358000", "120936.360000", "120936.363000", "120936.365000", "120936.368000", "120936.370000", "120936.372000", "120936.375000"], "InstanceCreationTime": ["120447.031000", "120447.034000", "120447.037000", "120447.039000", "120447.041000", "120447.044000", "120447.046000", "120447.049000", "120447.051000", "120447.054000", "120447.056000", "120447.058000", "120447.061000", "120447.063000", "120447.066000", "120447.072000", "120447.075000", "120447.078000", "120447.081000", "120447.083000", "120447.086000", "120447.088000", "120447.091000", "120447.093000", "120447.095000", "120447.098000", "120447.103000", "120447.105000", "120447.108000", "120447.110000", "120447.113000", "120447.115000", "120447.117000", "120447.120000", "120447.122000", "120507.026000", "120507.029000", "120507.031000", "120507.034000", "120507.036000", "120507.039000", "120507.041000", "120507.044000", "120507.046000", "120507.049000", "120507.051000", "120507.053000", "120507.056000", "120507.058000", "120507.061000", "120507.063000", "120507.065000", "120507.068000", "120507.070000", "120507.073000", "120507.075000", "120507.077000", "120507.080000", "120507.082000", "120507.085000", "120507.092000", "120507.094000", "120507.097000", "120507.099000", "120507.102000", "120507.104000", "120507.107000", "120507.109000", "120527.026000", "120527.029000", "120527.032000", "120527.034000", "120527.037000", "120527.039000", "120527.042000", "120527.044000", "120527.046000", "120527.057000", "120527.059000", "120527.062000", "120527.064000", "120527.067000", "120527.072000", "120527.075000", "120527.077000", "120527.079000", "120527.082000", "120527.084000", "120527.087000", "120527.089000", "120527.091000", "120527.094000", "120527.096000", "120527.098000", "120527.101000", "120527.103000", "120527.106000", "120527.108000", "120527.110000", "120527.113000", "120527.115000", "120547.025000", "120547.028000", "120547.030000", "120547.032000", "120547.035000", "120547.037000", "120547.040000", "120547.042000", "120547.045000", "120547.047000", "120547.049000", "120547.052000", "120547.054000", "120547.056000", "120547.059000", "120547.061000", "120547.079000", "120547.081000", "120547.083000", "120547.086000", "120547.088000", "120547.090000", "120547.093000", "120547.095000", "120547.097000", "120547.100000", "120547.102000", "120547.105000", "120547.107000", "120547.110000", "120547.112000", "120547.114000", "120547.127000", "120607.026000", "120607.029000", "120607.031000", "120607.034000", "120607.036000", "120607.038000", "120607.041000", "120607.043000", "120607.046000", "120607.048000", "120607.050000", "120607.053000", "120607.055000", "120607.057000", "120607.060000", "120607.062000", "120607.064000", "120607.067000", "120607.069000", "120607.072000", "120607.074000", "120607.076000", "120607.079000", "120607.081000", "120607.084000", "120607.086000", "120607.088000", "120607.091000", "120607.093000", "120607.095000", "120607.098000", "120607.100000", "120627.026000", "120627.029000", "120627.036000", "120627.039000", "120627.041000", "120627.044000", "120627.046000", "120627.048000", "120627.051000", "120627.053000", "120627.056000", "120627.058000", "120627.061000", "120627.063000", "120627.065000", "120627.068000", "120627.070000", "120627.073000", "120627.075000", "120627.077000", "120627.080000", "120627.082000", "120627.085000", "120627.087000", "120627.090000", "120627.092000", "120627.095000", "120627.097000", "120627.099000", "120627.102000", "120627.104000", "120627.107000", "120627.109000", "120647.026000", "120647.029000", "120647.032000", "120647.034000", "120647.037000", "120647.039000", "120647.041000", "120647.044000", "120647.046000", "120647.049000", "120647.051000", "120647.054000", "120647.056000", "120647.058000", "120647.061000", "120647.063000", "120647.066000", "120647.068000", "120647.071000", "120647.073000", "120647.075000", "120647.078000", "120647.080000", "120647.082000", "120647.085000", "120647.087000", "120647.090000", "120647.092000", "120647.094000", "120647.097000", "120647.099000", "120647.102000", "120647.104000", "120707.026000", "120707.029000", "120707.032000", "120707.034000", "120707.037000", "120707.039000", "120707.042000", "120707.044000", "120707.046000", "120707.049000", "120707.051000", "120707.054000", "120707.056000", "120707.064000", "120707.066000", "120707.069000", "120707.071000", "120707.074000", "120707.076000", "120707.078000", "120707.081000", "120707.083000", "120707.086000", "120707.091000", "120707.093000", "120707.096000", "120707.098000", "120707.100000", "120707.103000", "120707.105000", "120707.108000", "120707.110000", "120707.112000", "120727.026000", "120727.029000", "120727.031000", "120727.034000", "120727.036000", "120727.039000", "120727.041000", "120727.043000", "120727.046000", "120727.048000", "120727.051000", "120727.053000", "120727.055000", "120727.058000", "120727.061000", "120727.064000", "120727.067000", "120727.069000", "120727.072000", "120727.074000", "120727.076000", "120727.079000", "120727.081000", "120727.084000", "120727.086000", "120727.088000", "120727.091000", "120727.093000", "120727.095000", "120727.098000", "120727.100000", "120727.103000", "120747.026000", "120747.029000", "120747.031000", "120747.034000", "120747.036000", "120747.039000", "120747.041000", "120747.044000", "120747.046000", "120747.048000", "120747.051000", "120747.053000", "120747.056000", "120747.058000", "120747.061000", "120747.063000", "120747.065000", "120747.068000", "120747.070000", "120747.073000", "120747.075000", "120747.078000", "120747.090000"