{"AcquisitionMatrixPE": 64, "AcquisitionNumber": 1, "AcquisitionTime": "15:43:30.670000", "BandwidthPerPixelPhaseEncode": 28.935, "BaseResolution": 64, "BodyPartExamined": "BRAIN", "CoilString": "HC2_4_6_7;SC", "ConsistencyInfo": "N4_VE11E_LATEST_20181129", "ConversionSoftware": "dcm2niix", "ConversionSoftwareVersion": "v1.0.20190902", "DerivedVendorReportedEchoSpacing": 0.000540003, "DeviceSerialNumber": "166182", "DwellTime": 3.4e-06, "EchoTime": 0.032, "EchoTrainLength": 64, "EffectiveEchoSpacing": 0.000540003, "FlipAngle": 40, "ImageOrientationPatientDICOM": [0.990157, -0.105543, -0.0919208, 0.109314, 0.993318, 0.036997], "ImageType": ["ORIGINAL", "PRIMARY", "M", "ND", "NORM", "MOSAIC"], "ImagingFrequency": 123.256, "InPlanePhaseEncodingDirectionDICOM": "COL", "InstitutionAddress": "PEARSE_STREET_._City_District_IE_D2", "InstitutionName": "TCIN", "InstitutionalDepartmentName": "MRI", "MRAcquisitionType": "2D", "MagneticFieldStrength": 3, "Manufacturer": "Siemens", "ManufacturersModelName": "Prisma", "Modality": "MR", "MultibandAccelerationFactor": 4, "PartialFourier": 1, "PatientPosition": "HFS", "PercentPhaseFOV": 100, "PhaseEncodingDirection": "j-", "PhaseEncodingSteps": 64, "PhaseResolution": 1, "PixelBandwidth": 2300, "ProcedureStepDescription": "Rhodri_Head_BOLD", "ProtocolName": "cmrr_mbep2d_Pictures_AP_RDS", "PulseSequenceDetails": "%SiemensSeq%_ep2d_bold", "ReceiveCoilActiveElements": "HC2,4,6,7;SC", "ReceiveCoilName": "SpecialPurpose_4", "ReconMatrixPE": 64, "RefLinesPE": 12, "RepetitionTime": 0.61, "SAR": 0.216458, "ScanOptions": "FS", "ScanningSequence": "EP", "SequenceName": "_epfid2d1_64", "SequenceVariant": "SK", "SeriesDescription": "cmrr_mbep2d_Pictures_AP_RDS", "SeriesNumber": 12, "ShimSetting": [-3543, -7520, 3947, 1120, -104, 231, 467, -4], "SliceThickness": 3, "SliceTiming": [0.2625, 0, 0.3275, 0.065, 0.3925, 0.13, 0.4575, 0.195, 0.5225, 0.2625, 0, 0.3275, 0.065, 0.3925, 0.13, 0.4575, 0.195, 0.5225, 0.2625, 0, 0.3275, 0.065, 0.3925, 0.13, 0.4575, 0.195, 0.5225, 0.2625, 0, 0.3275, 0.065, 0.3925, 0.13, 0.4575, 0.195, 0.5225], "SoftwareVersions": "syngo_MR_E11", "SpacingBetweenSlices": 3.3, "StationName": "AWP166182", "TaskName": "pictures", "TotalReadoutTime": 0.0340202, "TxRefAmp": 220.845, "dcmmeta_affine": [[-2.9704716205596924, 0.3279431164264679, -0.28842616081237793, 90.87723541259766], [0.3166283965110779, 2.9799554347991943, 0.1540476381778717, -114.27607727050781], [-0.2757624089717865, -0.1109909638762474, 3.2837600708007812, -61.29279708862305], [0.0, 0.0, 0.0, 1.0]], "dcmmeta_reorient_transform": [[0.0, -1.0, 0.0, 63.0], [1.0, 0.0, 0.0, 0.0], [0.0, 0.0, 1.0, 0.0], [0.0, 0.0, 0.0, 1.0]], "dcmmeta_shape": [64, 64, 36, 510], "dcmmeta_slice_dim": 2, "dcmmeta_version": 0.6, "global": {"const": {"AcquisitionMatrix": [64, 0, 0, 64], "AngioFlag": "N", "BitsAllocated": 16, "BitsStored": 12, "BodyPartExamined": "BRAIN", "Columns": 384, "EchoNumbers": 1, "EchoTime": 32.0, "EchoTrainLength": 64, "FlipAngle": 40.0, "HighBit": 11, "ImageOrientationPatient": [0.99015720093982, -0.1055428032577, -0.0919208034535, 0.10931436861188, 0.99331847442836, 0.03699698871949], "ImagePositionPatient": [-639.28400115605, -499.59343625253, -41.921797447071], "ImageType": ["ORIGINAL", "PRIMARY", "M", "ND", "NORM", "MOSAIC"], "ImagedNucleus": "1H", "ImagingFrequency": 123.256393, "InPlanePhaseEncodingDirection": "COL", "MRAcquisitionType": "2D", "MagneticFieldStrength": 3.0, "Manufacturer": "SIEMENS", "ManufacturerModelName": "Prisma", "Modality": "MR", "NumberOfAverages": 1.0, "NumberOfPhaseEncodingSteps": 64, "PercentPhaseFieldOfView": 100.0, "PercentSampling": 100.0, "PerformedProcedureStepStartTime": "150520.642000", "PhotometricInterpretation": "MONOCHROME2", "PixelBandwidth": 2300.0, "PixelRepresentation": 0, "PixelSpacing": [3.0, 3.0], "ProtocolName": "cmrr_mbep2d_Pictures_AP_RDS", "RepetitionTime": 610.0, "Rows": 384, "SAR": 0.21645769690409, "SamplesPerPixel": 1, "ScanOptions": "FS", "ScanningSequence": "EP", "SequenceName": "*epfid2d1_64", "SequenceVariant": "SK", "SeriesDescription": "cmrr_mbep2d_Pictures_AP_RDS", "SeriesNumber": 12, "SeriesTime": "154348.264000", "SliceLocation": -74.268535256951, "SliceThickness": 3.0, "SmallestImagePixelValue": 0, "SoftwareVersions": "syngo MR E11", "SpacingBetweenSlices": 3.3000000799468, "SpecificCharacterSet": "ISO_IR 100", "StudyID": "2", "StudyTime": "150520.574000", "TransmitCoilName": "Body", "VariableFlipAngleFlag": "N", "WindowCenterWidthExplanation": "Algo1"}, "slices": {}}, "time": {"samples": {"AcquisitionNumber": [1, 2, 3, 4, 5, 6, 7, 8, 9, 10, 11, 12, 13, 14, 15, 16, 17, 18, 19, 20, 21, 22, 23, 24, 25, 26, 27, 28, 29, 30, 31, 32, 33, 34, 35, 36, 37, 38, 39, 40, 41, 42, 43, 44, 45, 46, 47, 48, 49, 50, 51, 52, 53, 54, 55, 56, 57, 58, 59, 60, 61, 62, 63, 64, 65, 66, 67, 68, 69, 70, 71, 72, 73, 74, 75, 76, 77, 78, 79, 80, 81, 82, 83, 84, 85, 86, 87, 88, 89, 90, 91, 92, 93, 94, 95, 96, 97, 98, 99, 100, 101, 102, 103, 104, 105, 106, 107, 108, 109, 110, 111, 112, 113, 114, 115, 116, 117, 118, 119, 120, 121, 122, 123, 124, 125, 126, 127, 128, 129, 130, 131, 132, 133, 134, 135, 136, 137, 138, 139, 140, 141, 142, 143, 144, 145, 146, 147, 148, 149, 150, 151, 152, 153, 154, 155, 156, 157, 158, 159, 160, 161, 162, 163, 164, 165, 166, 167, 168, 169, 170, 171, 172, 173, 174, 175, 176, 177, 178, 179, 180, 181, 182, 183, 184, 185, 186, 187, 188, 189, 190, 191, 192, 193, 194, 195, 196, 197, 198, 199, 200, 201, 202, 203, 204, 205, 206, 207, 208, 209, 210, 211, 212, 213, 214, 215, 216, 217, 218, 219, 220, 221, 222, 223, 224, 225, 226, 227, 228, 229, 230, 231, 232, 233, 234, 235, 236, 237, 238, 239, 240, 241, 242, 243, 244, 245, 246, 247, 248, 249, 250, 251, 252, 253, 254, 255, 256, 257, 258, 259, 260, 261, 262, 263, 264, 265, 266, 267, 268, 269, 270, 271, 272, 273, 274, 275, 276, 277, 278, 279, 280, 281, 282, 283, 284, 285, 286, 287, 288, 289, 290, 291, 292, 293, 294, 295, 296, 297, 298, 299, 300, 301, 302, 303, 304, 305, 306, 307, 308, 309, 310, 311, 312, 313, 314, 315, 316, 317, 318, 319, 320, 321, 322, 323, 324, 325, 326, 327, 328, 329, 330, 331, 332, 333, 334, 335, 336, 337, 338, 339, 340, 341, 342, 343, 344, 345, 346, 347, 348, 349, 350, 351, 352, 353, 354, 355, 356, 357, 358, 359, 360, 361, 362, 363, 364, 365, 366, 367, 368, 369, 370, 371, 372, 373, 374, 375, 376, 377, 378, 379, 380, 381, 382, 383, 384, 385, 386, 387, 388, 389, 390, 391, 392, 393, 394, 395, 396, 397, 398, 399, 400, 401, 402, 403, 404, 405, 406, 407, 408, 409, 410, 411, 412, 413, 414, 415, 416, 417, 418, 419, 420, 421, 422, 423, 424, 425, 426, 427, 428, 429, 430, 431, 432, 433, 434, 435, 436, 437, 438, 439, 440, 441, 442, 443, 444, 445, 446, 447, 448, 449, 450, 451, 452, 453, 454, 455, 456, 457, 458, 459, 460, 461, 462, 463, 464, 465, 466, 467, 468, 469, 470, 471, 472, 473, 474, 475, 476, 477, 478, 479, 480, 481, 482, 483, 484, 485, 486, 487, 488, 489, 490, 491, 492, 493, 494, 495, 496, 497, 498, 499, 500, 501, 502, 503, 504, 505, 506, 507, 508, 509, 510], "AcquisitionTime": ["154330.670000", "154331.280000", "154331.890000", "154332.500000", "154333.110000", "154333.720000", "154334.330000", "154334.940000", "154335.550000", "154336.160000", "154336.770000", "154337.380000", "154337.990000", "154338.600000", "154339.210000", "154339.820000", "154340.430000", "154341.040000", "154341.650000", "154342.260000", "154342.870000", "154343.480000", "154344.090000", "154344.700000", "154345.310000", "154345.920000", "154346.530000", "154347.140000", "154347.750000", "154348.360000", "154348.970000", "154349.580000", "154350.190000", "154350.800000", "154351.410000", "154352.020000", "154352.630000", "154353.240000", "154353.850000", "154354.460000", "154355.070000", "154355.680000", "154356.290000", "154356.900000", "154357.510000", "154358.120000", "154358.730000", "154359.340000", "154359.950000", "154400.560000", "154401.170000", "154401.780000", "154402.390000", "154403.000000", "154403.610000", "154404.220000", "154404.830000", "154405.440000", "154406.050000", "154406.660000", "154407.270000", "154407.880000", "154408.490000", "154409.100000", "154409.710000", "154410.320000", "154410.930000", "154411.540000", "154412.150000", "154412.760000", "154413.370000", "154413.980000", "154414.590000", "154415.200000", "154415.810000", "154416.420000", "154417.030000", "154417.640000", "154418.250000", "154418.860000", "154419.470000", "154420.080000", "154420.690000", "154421.300000", "154421.910000", "154422.520000", "154423.130000", "154423.740000", "154424.350000", "154424.960000", "154425.570000", "154426.180000", "154426.790000", "154427.400000", "154428.010000", "154428.620000", "154429.230000", "154429.840000", "154430.450000", "154431.060000", "154431.670000", "154432.280000", "154432.890000", "154433.500000", "154434.110000", "154434.720000", "154435.330000", "154435.940000", "154436.550000", "154437.160000", "154437.770000", "154438.380000", "154438.990000", "154439.600000", "154440.210000", "154440.820000", "154441.430000", "154442.040000", "154442.650000", "154443.260000", "154443.870000", "154444.480000", "154445.090000", "154445.700000", "154446.310000", "154446.920000", "154447.530000", "154448.140000", "154448.750000", "154449.360000", "154449.970000", "154450.580000", "154451.190000", "154451.800000", "154452.410000", "154453.020000", "154453.630000", "154454.240000", "154454.850000", "154455.460000", "154456.070000", "154456.680000", "154457.290000", "154457.900000", "154458.510000", "154459.120000", "154459.730000", "154500.340000", "154500.950000", "154501.560000", "154502.170000", "154502.780000", "154503.390000", "154504.000000", "154504.610000", "154505.220000", "154505.830000", "154506.440000", "154507.050000", "154507.660000", "154508.270000", "154508.880000", "154509.490000", "154510.100000", "154510.710000", "154511.320000", "154511.930000", "154512.540000", "154513.150000", "154513.760000", "154514.370000", "154514.980000", "154515.590000", "154516.200000", "154516.810000", "154517.420000", "154518.030000", "154518.640000", "154519.250000", "154519.860000", "154520.470000", "154521.080000", "154521.690000", "154522.300000", "154522.910000", "154523.520000", "154524.130000", "154524.740000", "154525.350000", "154525.960000", "154526.570000", "154527.180000", "154527.790000", "154528.400000", "154529.010000", "154529.620000", "154530.230000", "154530.840000", "154531.450000", "154532.060000", "154532.670000", "154533.280000", "154533.890000", "154534.500000", "154535.110000", "154535.720000", "154536.330000", "154536.940000", "154537.550000", "154538.160000", "154538.770000", "154539.380000", "154539.990000", "154540.600000", "154541.210000", "154541.820000", "154542.430000", "154543.040000", "154543.650000", "154544.260000", "154544.870000", "154545.480000", "154546.090000", "154546.700000", "154547.310000", "154547.920000", "154548.530000", "154549.140000", "154549.750000", "154550.360000", "154550.970000", "154551.580000", "154552.190000", "154552.800000", "154553.410000", "154554.020000", "154554.630000", "154555.240000", "154555.850000", "154556.460000", "154557.070000", "154557.680000", "154558.290000", "154558.900000", "154559.510000", "154600.120000", "154600.730000", "154601.340000", "154601.950000", "154602.560000", "154603.170000", "154603.780000", "154604.390000", "154605.000000", "154605.610000", "154606.220000", "154606.830000", "154607.440000", "154608.050000", "154608.660000", "154609.270000", "154609.880000", "154610.490000", "154611.100000", "154611.710000", "154612.320000", "154612.930000", "154613.540000", "154614.150000", "154614.760000", "154615.370000", "154615.980000", "154616.590000", "154617.200000", "154617.810000", "154618.420000", "154619.030000", "154619.640000", "154620.250000", "154620.860000", "154621.470000", "154622.080000", "154622.690000", "154623.300000", "154623.910000", "154624.520000", "154625.130000", "154625.740000", "154626.350000", "154626.960000", "154627.570000", "154628.180000", "154628.790000", "154629.400000", "154630.010000", "154630.620000", "154631.230000", "154631.840000", "154632.450000", "154633.060000", "154633.670000", "154634.280000", "154634.890000", "154635.500000", "154636.110000", "154636.720000", "154637.330000", "154637.940000", "154638.550000", "154639.160000", "154639.770000", "154640.380000", "154640.990000", "154641.600000", "154642.210000", "154642.820000", "154643.430000", "154644.040000", "154644.650000", "154645.260000", "154645.870000", "154646.480000", "154647.090000", "154647.700000", "154648.310000", "154648.920000", "154649.530000", "154650.140000", "154650.750000", "154651.360000", "154651.970000", "154652.580000", "154653.190000", "154653.800000", "154654.410000", "154655.020000", "154655.630000", "154656.240000", "154656.850000", "154657.460000", "154658.070000", "154658.680000", "154659.290000", "154659.900000", "154700.510000", "154701.120000", "154701.730000", "154702.340000", "154702.950000", "154703.560000", "154704.170000", "154704.780000", "154705.390000", "154706.000000", "154706.610000", "154707.220000", "154707.830000", "154708.440000", "154709.050000", "154709.660000", "154710.270000", "154710.880000", "154711.490000", "154712.100000", "154712.710000", "154713.320000", "154713.930000", "154714.540000", "154715.150000", "154715.760000", "154716.370000", "154716.980000", "154717.590000", "154718.200000", "154718.810000", "154719.420000", "154720.030000", "154720.640000", "154721.250000", "154721.860000", "154722.470000", "154723.080000", "154723.690000", "154724.300000", "154724.910000", "154725.520000", "154726.130000", "154726.740000", "154727.350000", "154727.960000", "154728.570000", "154729.180000", "154729.790000", "154730.400000", "154731.010000", "154731.620000", "154732.230000", "154732.840000", "154733.450000", "154734.060000", "154734.670000", "154735.280000", "154735.890000", "154736.500000", "154737.110000", "154737.720000", "154738.330000", "154738.940000", "154739.550000", "154740.160000", "154740.770000", "154741.380000", "154741.990000", "154742.600000", "154743.210000", "154743.820000", "154744.430000", "154745.040000", "154745.650000", "154746.260000", "154746.870000", "154747.480000", "154748.090000", "154748.700000", "154749.310000", "154749.920000", "154750.530000", "154751.140000", "154751.750000", "154752.360000", "154752.970000", "154753.580000", "154754.190000", "154754.800000", "154755.410000", "154756.020000", "154756.630000", "154757.240000", "154757.850000", "154758.460000", "154759.070000", "154759.680000", "154800.290000", "154800.900000", "154801.510000", "154802.120000", "154802.730000", "154803.340000", "154803.950000", "154804.560000", "154805.170000", "154805.780000", "154806.390000", "154807.000000", "154807.610000", "154808.220000", "154808.830000", "154809.440000", "154810.050000", "154810.660000", "154811.270000", "154811.880000", "154812.490000", "154813.100000", "154813.710000", "154814.320000", "154814.930000", "154815.540000", "154816.150000", "154816.760000", "154817.370000", "154817.980000", "154818.590000", "154819.200000", "154819.810000", "154820.420000", "154821.030000", "154821.640000", "154822.250000", "154822.860000", "154823.470000", "154824.080000", "154824.690000", "154825.300000", "154825.910000", "154826.520000", "154827.130000", "154827.740000", "154828.350000", "154828.960000", "154829.570000", "154830.180000", "154830.790000", "154831.400000", "154832.010000", "154832.620000", "154833.230000", "154833.840000", "154834.450000", "154835.060000", "154835.670000", "154836.280000", "154836.890000", "154837.500000", "154838.110000", "154838.720000", "154839.330000", "154839.940000", "154840.550000", "154841.160000"], "ContentTime": ["154348.268000", "154348.271000", "154348.274000", "154348.276000", "154348.279000", "154348.281000", "154348.283000", "154348.286000", "154348.288000", "154348.290000", "154348.298000", "154348.301000", "154348.303000", "154348.312000", "154348.315000", "154348.318000", "154348.321000", "154348.324000", "154348.326000", "154348.329000", "154348.332000", "154348.335000", "154348.337000", "154348.340000", "154348.342000", "154348.344000", "154348.347000", "154348.349000", "154408.263000", "154408.266000", "154408.268000", "154408.277000", "154408.279000", "154408.281000", "154408.284000", "154408.286000", "154408.288000", "154408.291000", "154408.293000", "154408.295000", "154408.298000", "154408.300000", "154408.302000", "154408.305000", "154408.307000", "154408.310000", "154408.312000", "154408.314000", "154408.317000", "154408.319000", "154408.321000", "154408.324000", "154408.326000", "154408.330000", "154408.332000", "154408.335000", "154408.337000", "154408.339000", "154408.342000", "154408.344000", "154408.346000", "154428.263000", "154428.266000", "154428.268000", "154428.271000", "154428.273000", "154428.275000", "154428.278000", "154428.280000", "154428.283000", "154428.285000", "154428.287000", "154428.290000", "154428.292000", "154428.294000", "154428.297000", "154428.299000", "154428.301000", "154428.304000", "154428.306000", "154428.308000", "154428.311000", "154428.313000", "154428.316000", "154428.318000", "154428.320000", "154428.323000", "154428.325000", "154428.327000", "154428.330000", "154428.332000", "154428.334000", "154428.337000", "154428.339000", "154448.263000", "154448.266000", "154448.268000", "154448.270000", "154448.273000", "154448.275000", "154448.278000", "154448.280000", "154448.282000", "154448.285000", "154448.287000", "154448.289000", "154448.292000", "154448.294000", "154448.297000", "154448.299000", "154448.302000", "154448.304000", "154448.307000", "154448.309000", "154448.311000", "154448.314000", "154448.316000", "154448.318000", "154448.321000", "154448.323000", "154448.325000", "154448.328000", "154448.330000", "154448.332000", "154448.335000", "154448.337000", "154508.263000", "154508.266000", "154508.269000", "154508.271000", "154508.274000", "154508.277000", "154508.279000", "154508.282000", "154508.284000", "154508.287000", "154508.289000", "154508.291000", "154508.294000", "154508.296000", "154508.298000", "154508.301000", "154508.303000", "154508.305000", "154508.308000", "154508.310000", "154508.313000", "154508.315000", "154508.318000", "154508.320000", "154508.322000", "154508.325000", "154508.328000", "154508.330000", "154508.333000", "154508.335000", "154508.337000", "154508.340000", "154508.342000", "154528.264000", "154528.267000", "154528.269000", "154528.272000", "154528.274000", "154528.276000", "154528.279000", "154528.281000", "154528.283000", "154528.286000", "154528.288000", "154528.291000", "154528.293000", "154528.295000", "154528.298000", "154528.300000", "154528.302000", "154528.305000", "154528.307000", "154528.310000", "154528.312000", "154528.314000", "154528.317000", "154528.319000", "154528.322000", "154528.324000", "154528.326000", "154528.329000", "154528.331000", "154528.333000", "154528.336000", "154528.338000", "154528.341000", "154548.264000", "154548.267000", "154548.269000", "154548.271000", "154548.274000", "154548.276000", "154548.279000", "154548.281000", "154548.283000", "154548.286000", "154548.288000", "154548.290000", "154548.293000", "154548.295000", "154548.298000", "154548.300000", "154548.303000", "154548.305000", "154548.307000", "154548.310000", "154548.312000", "154548.314000", "154548.317000", "154548.319000", "154548.321000", "154548.324000", "154548.326000", "154548.328000", "154548.331000", "154548.333000", "154548.335000", "154548.338000", "154548.340000", "154608.263000", "154608.266000", "154608.278000", "154608.281000", "154608.283000", "154608.285000", "154608.288000", "154608.290000", "154608.292000", "154608.295000", "154608.297000", "154608.300000", "154608.302000", "154608.304000", "154608.307000", "154608.309000", "154608.311000", "154608.314000", "154608.316000", "154608.318000", "154608.321000", "154608.323000", "154608.326000", "154608.328000", "154608.330000", "154608.333000", "154608.335000", "154608.338000", "154608.340000", "154608.343000", "154608.345000", "154608.347000", "154608.349000", "154628.263000", "154628.266000", "154628.268000", "154628.270000", "154628.273000", "154628.275000", "154628.278000", "154628.280000", "154628.282000", "154628.285000", "154628.287000", "154628.289000", "154628.292000", "154628.294000", "154628.297000", "154628.299000", "154628.301000", "154628.304000", "154628.306000", "154628.308000", "154628.311000", "154628.313000", "154628.315000", "154628.318000", "154628.320000", "154628.323000", "154628.325000", "154628.327000", "154628.330000", "154628.332000", "154628.335000", "154628.337000", "154648.263000", "154648.266000", "154648.269000", "154648.271000", "154648.273000", "154648.276000", "154648.278000", "154648.281000", "154648.283000", "154648.285000", "154648.288000", "154648.290000", "154648.293000", "154648.295000", "154648.297000", "154648.300000", "154648.302000", "154648.304000", "154648.307000", "154648.309000", "154648.313000", "154648.315000", "154648.318000", "154648.320000", "154648.322000", "154648.325000", "154648.327000", "154648.330000", "154648.332000", "154648.334000", "154648.337000", "154648.339000", "154648.342000", "154708.263000", "154708.266000", "154708.268000", "154708.271000", "154708.273000", "154708.275000", "154708.278000", "154708.281000", "154708.283000", "154708.285000", "154708.288000", "154708.290000", "154708.293000", "154708.295000", "154708.297000", "154708.300000", "154708.302000", "154708.305000", "154708.307000", "154708.309000", "154708.320000", "154708.322000", "154708.324000", "154708.327000", "154708.329000", "154708.332000", "154708.334000", "154708.336000", "154708.339000", "154708.341000", "154708.344000", "154708.346000", "154708.348000", "154728.263000", "154728.266000", "154728.268000", "154728.271000", "154728.273000", "154728.276000", "154728.278000", "154728.280000", "154728.283000", "154728.285000", "154728.288000", "154728.290000", "154728.292000", "154728.295000", "154728.297000", "154728.299000", "154728.302000", "154728.304000", "154728.307000", "154728.309000", "154728.311000", "154728.314000", "154728.316000", "154728.319000", "154728.321000", "154728.323000", "154728.326000", "154728.328000", "154728.330000", "154728.333000", "154728.335000", "154728.337000", "154728.340000", "154748.264000", "154748.267000", "154748.269000", "154748.272000", "154748.274000", "154748.277000", "154748.279000", "154748.282000", "154748.284000", "154748.287000", "154748.289000", "154748.291000", "154748.294000", "154748.296000", "154748.298000", "154748.301000", "154748.303000", "154748.306000", "154748.308000", "154748.310000", "154748.313000", "154748.315000", "154748.318000", "154748.320000", "154748.322000", "154748.325000", "154748.327000", "154748.330000", "154748.332000", "154748.334000", "154748.337000", "154748.339000", "154748.341000", "154808.264000", "154808.267000", "154808.269000", "154808.272000", "154808.274000", "154808.277000", "154808.279000", "154808.282000", "154808.284000", "154808.286000", "154808.289000", "154808.291000", "154808.294000", "154808.296000", "154808.299000", "154808.301000", "154808.304000", "154808.306000", "154808.308000", "154808.311000", "154808.313000", "154808.316000", "154808.318000", "154808.320000", "154808.323000", "154808.325000", "154808.327000", "154808.330000", "154808.332000", "154808.335000", "154808.337000", "154808.340000", "154828.263000", "154828.266000", "154828.268000", "154828.271000", "154828.273000", "154828.275000", "154828.278000", "154828.280000", "154828.282000", "154828.285000", "154828.287000", "154828.290000", "154828.292000", "154828.294000", "154828.297000", "154828.299000", "154828.302000", "154828.304000", "154828.307000", "154828.309000", "154828.311000", "154828.314000", "154828.316000", "154828.319000", "154828.321000", "154828.323000", "154828.326000", "154828.328000", "154828.331000", "154828.333000", "154828.335000", "154828.338000", "154828.340000", "154841.897000", "154841.899000", "154841.902000", "154841.904000", "154841.907000", "154841.917000", "154841.919000", "154841.922000", "154841.924000", "154841.926000", "154841.929000", "154841.931000", "154841.934000", "154841.936000", "154841.938000", "154841.941000", "154841.943000", "154841.956000", "154841.958000", "154841.960000", "154841.963000", "154841.965000", "154841.967000"], "InstanceCreationTime": ["154348.268000", "154348.271000", "154348.274000", "154348.276000", "154348.279000", "154348.281000", "154348.283000", "154348.286000", "154348.288000", "154348.290000", "154348.298000", "154348.301000", "154348.303000", "154348.312000", "154348.315000", "154348.318000", "154348.321000", "154348.324000", "154348.326000", "154348.329000", "154348.332000", "154348.335000", "154348.337000", "154348.340000", "154348.342000", "154348.344000", "154348.347000", "154348.349000", "154408.263000", "154408.266000", "154408.268000", "154408.277000", "154408.279000", "154408.281000", "154408.284000", "154408.286000", "154408.288000", "154408.291000", "154408.293000", "154408.295000", "154408.298000", "154408.300000", "154408.302000", "154408.305000", "154408.307000", "154408.310000", "154408.312000", "154408.314000", "154408.317000", "154408.319000", "154408.321000", "154408.324000", "154408.326000", "154408.330000", "154408.332000", "154408.335000", "154408.337000", "154408.339000", "154408.342000", "154408.344000", "154408.346000", "154428.263000", "154428.266000", "154428.268000", "154428.271000", "154428.273000", "154428.275000", "154428.278000", "154428.280000", "154428.283000", "154428.285000", "154428.287000", "154428.290000", "154428.292000", "154428.294000", "154428.297000", "154428.299000", "154428.301000", "154428.304000", "154428.306000", "154428.308000", "154428.311000", "154428.313000", "154428.316000", "154428.318000", "154428.320000", "154428.323000", "154428.325000", "154428.327000", "154428.330000", "154428.332000", "154428.334000", "154428.337000", "154428.339000", "154448.263000", "154448.266000", "154448.268000", "154448.270000", "154448.273000", "154448.275000", "154448.278000", "154448.280000", "154448.282000", "154448.285000", "154448.287000", "154448.289000", "154448.292000", "154448.294000", "154448.297000", "154448.299000", "154448.302000", "154448.304000", "154448.307000", "154448.309000", "154448.311000", "154448.314000", "154448.316000", "154448.318000", "154448.321000", "154448.323000", "154448.325000", "154448.328000", "154448.330000", "154448.332000", "154448.335000", "154448.337000", "154508.263000", "154508.266000", "154508.269000", "154508.271000", "154508.274000", "154508.277000", "154508.279000", "154508.282000", "154508.284000", "154508.287000", "154508.289000", "154508.291000", "154508.294000", "154508.296000", "154508.298000", "154508.301000", "154508.303000", "154508.305000", "154508.308000", "154508.310000", "154508.313000", "154508.315000", "154508.318000", "154508.320000", "154508.322000", "154508.325000", "154508.328000", "154508.330000", "154508.333000", "154508.335000", "154508.337000", "154508.340000", "154508.342000", "154528.264000", "154528.267000", "154528.269000", "154528.272000", "154528.274000", "154528.276000", "154528.279000", "154528.281000", "154528.283000", "154528.286000", "154528.288000", "154528.291000", "154528.293000", "154528.295000", "154528.298000", "154528.300000", "154528.302000", "154528.305000", "154528.307000", "154528.310000", "154528.312000", "154528.314000", "154528.317000", "154528.319000", "154528.322000", "154528.324000", "154528.326000", "154528.329000", "154528.331000", "154528.333000", "154528.336000", "154528.338000", "154528.341000", "154548.264000", "154548.267000", "154548.269000", "154548.271000", "154548.274000", "154548.276000", "154548.279000", "154548.281000", "154548.283000", "154548.286000", "154548.288000", "154548.290000", "154548.293000", "154548.295000", "154548.298000", "154548.300000", "154548.303000", "154548.305000", "154548.307000", "154548.310000", "154548.312000", "154548.314000", "154548.317000", "154548.319000", "154548.321000", "154548.324000", "154548.326000", "154548.328000", "154548.331000", "154548.333000", "154548.335000", "154548.338000", "154548.340000", "154608.263000", "154608.266000", "154608.278000", "154608.281000", "154608.283000", "154608.285000", "154608.288000", "154608.290000", "154608.292000", "154608.295000", "154608.297000", "154608.300000", "154608.302000", "154608.304000", "154608.307000", "154608.309000", "154608.311000", "154608.314000", "154608.316000", "154608.318000", "154608.321000", "154608.323000", "154608.326000", "154608.328000", "154608.330000", "154608.333000", "154608.335000", "154608.338000", "154608.340000", "154608.343000", "154608.345000", "154608.347000", "154608.349000", "154628.263000", "154628.266000", "154628.268000", "154628.270000", "154628.273000", "154628.275000", "154628.278000", "154628.280000", "154628.282000", "154628.285000", "154628.287000", "154628.289000", "154628.292000", "154628.294000", "154628.297000", "154628.299000", "154628.301000", "154628.304000", "154628.306000", "154628.308000", "154628.311000", "154628.313000", "154628.315000", "154628.318000", "154628.320000", "154628.323000", "154628.325000", "154628.327000", "154628.330000", "154628.332000", "154628.335000", "154628.337000", "154648.263000", "154648.266000", "154648.269000", "154648.271000", "154648.273000", "154648.276000", "154648.278000", "154648.281000", "154648.283000", "154648.285000", "154648.288000", "154648.290000", "154648.293000", "154648.295000", "154648.297000", "154648.300000", "154648.302000", "154648.304000", "154648.307000", "154648.309000", "154648.313000", "154648.315000", "154648.318000", "154648.320000", "154648.322000", "154648.325000", "154648.327000", "154648.330000", "154648.332000", "154648.334000", "154648.337000", "154648.339000", "154648.342000", "154708.263000", "154708.266000", "154708.268000", "154708.271000", "154708.273000", "154708.275000",