{"AcquisitionMatrixPE": 64, "AcquisitionNumber": 1, "AcquisitionTime": "10:32:3.710000", "BandwidthPerPixelPhaseEncode": 28.935, "BaseResolution": 64, "BodyPartExamined": "BRAIN", "CoilCombinationMethod": "Sum of Squares", "ConsistencyInfo": "N4_VE11E_LATEST_20181129", "ConversionSoftware": "dcm2niix", "ConversionSoftwareVersion": "v1.0.20230411", "DerivedVendorReportedEchoSpacing": 0.000540003, "DeviceSerialNumber": "166182", "DwellTime": 3.4e-06, "EchoTime": 0.032, "EchoTrainLength": 64, "EffectiveEchoSpacing": 0.000540003, "FlipAngle": 40, "HeudiconvVersion": "0.13.1", "ImageOrientationPatientDICOM": [0.998046, 0.0227224, -0.0582003, -0.0226489, 0.999742, 0.00192323], "ImageOrientationText": "Tra>Sag(-3.3)>Cor(0.0)", "ImageType": ["ORIGINAL", "PRIMARY", "M", "ND", "NORM", "MOSAIC"], "ImagingFrequency": 123.256337, "InPlanePhaseEncodingDirectionDICOM": "COL", "InstitutionAddress": "PEARSE STREET .,City,District,IE,D2", "InstitutionName": "TCIN", "InstitutionalDepartmentName": "MRI", "MRAcquisitionType": "2D", "MagneticFieldStrength": 3, "Manufacturer": "Siemens", "ManufacturersModelName": "Prisma", "Modality": "MR", "MultibandAccelerationFactor": 4, "NonlinearGradientCorrection": false, "PartialFourier": 1, "PatientPosition": "HFS", "PercentPhaseFOV": 100, "PercentSampling": 100, "PhaseEncodingDirection": "j-", "PhaseEncodingSteps": 64, "PhaseResolution": 1, "PixelBandwidth": 2300, "ProcedureStepDescription": "Rhodri^Head BOLD", "ProtocolName": "cmrr_mbep2d_Pictures_AP_RDS", "PulseSequenceDetails": "%SiemensSeq%\\ep2d_bold", "ReceiveCoilActiveElements": "HC2,4,6,7;SC", "ReceiveCoilName": "SpecialPurpose_4", "ReconMatrixPE": 64, "RefLinesPE": 12, "RepetitionTime": 0.61, "SAR": 0.339863, "ScanOptions": "FS", "ScanningSequence": "EP", "SequenceName": "*epfid2d1_64", "SequenceVariant": "SK", "SeriesDescription": "cmrr_mbep2d_Pictures_AP_RDS", "SeriesNumber": 8, "ShimSetting": [-3608, -7296, 3873, 667, -27, -168, 173, 113], "SliceThickness": 3, "SliceTiming": [0.2625, 0, 0.3275, 0.065, 0.395, 0.1325, 0.46, 0.1975, 0.525, 0.2625, 0, 0.3275, 0.065, 0.395, 0.1325, 0.46, 0.1975, 0.525, 0.2625, 0, 0.3275, 0.065, 0.395, 0.1325, 0.46, 0.1975, 0.525, 0.2625, 0, 0.3275, 0.065, 0.395, 0.1325, 0.46, 0.1975, 0.525], "SoftwareVersions": "syngo MR E11", "SpacingBetweenSlices": 3.3, "StationName": "AWP166182", "TaskName": "pictures", "TotalReadoutTime": 0.0340202, "TxRefAmp": 240.151, "dcmmeta_affine": [[-2.9941389560699463, -0.0679466500878334, -0.19215546548366547, 101.29205322265625], [-0.0681673064827919, 2.999224901199341, 0.0019842861220240593, -92.91191101074219], [-0.17460079491138458, -0.00576968165114522, 3.294400215148926, -94.92621612548828], [0.0, 0.0, 0.0, 1.0]], "dcmmeta_reorient_transform": [[0.0, -1.0, 0.0, 63.0], [1.0, 0.0, 0.0, 0.0], [0.0, 0.0, 1.0, 0.0], [0.0, 0.0, 0.0, 1.0]], "dcmmeta_shape": [64, 64, 36, 510], "dcmmeta_slice_dim": 2, "dcmmeta_version": 0.6, "global": {"const": {"AcquisitionMatrix": [64, 0, 0, 64], "AngioFlag": "N", "BitsAllocated": 16, "BitsStored": 12, "BodyPartExamined": "BRAIN", "Columns": 384, "EchoNumbers": 1, "EchoTime": 32.0, "EchoTrainLength": 64, "FlipAngle": 40.0, "HighBit": 11, "ImageOrientationPatient": [0.99804630140375, 0.02272243658642, -0.0582002674381, -0.0226488825684, 0.99974163128044, 0.0019232272671], "ImagePositionPatient": [-565.2021720783, -586.82201354816, -68.276723750665], "ImageType": ["ORIGINAL", "PRIMARY", "M", "ND", "NORM", "MOSAIC"], "ImagedNucleus": "1H", "ImagingFrequency": 123.256337, "InPlanePhaseEncodingDirection": "COL", "MRAcquisitionType": "2D", "MagneticFieldStrength": 3.0, "Manufacturer": "SIEMENS", "ManufacturerModelName": "Prisma", "Modality": "MR", "NumberOfAverages": 1.0, "NumberOfPhaseEncodingSteps": 64, "PercentPhaseFieldOfView": 100.0, "PercentSampling": 100.0, "PerformedProcedureStepStartTime": "101721.996000", "PhotometricInterpretation": "MONOCHROME2", "PixelBandwidth": 2300.0, "PixelRepresentation": 0, "PixelSpacing": [3.0, 3.0], "ProtocolName": "cmrr_mbep2d_Pictures_AP_RDS", "RepetitionTime": 610.0, "Rows": 384, "SAR": 0.3398631248118, "SamplesPerPixel": 1, "ScanOptions": "FS", "ScanningSequence": "EP", "SequenceName": "*epfid2d1_64", "SequenceVariant": "SK", "SeriesDescription": "cmrr_mbep2d_Pictures_AP_RDS", "SeriesNumber": 8, "SeriesTime": "103220.995000", "SliceLocation": -100.71912601412, "SliceThickness": 3.0, "SmallestImagePixelValue": 0, "SoftwareVersions": "syngo MR E11", "SpacingBetweenSlices": 3.2999999850196, "SpecificCharacterSet": "ISO_IR 100", "StudyID": "1", "StudyTime": "101721.852000", "TransmitCoilName": "Body", "VariableFlipAngleFlag": "N", "WindowCenterWidthExplanation": "Algo1"}, "slices": {}}, "time": {"samples": {"AcquisitionNumber": [1, 2, 3, 4, 5, 6, 7, 8, 9, 10, 11, 12, 13, 14, 15, 16, 17, 18, 19, 20, 21, 22, 23, 24, 25, 26, 27, 28, 29, 30, 31, 32, 33, 34, 35, 36, 37, 38, 39, 40, 41, 42, 43, 44, 45, 46, 47, 48, 49, 50, 51, 52, 53, 54, 55, 56, 57, 58, 59, 60, 61, 62, 63, 64, 65, 66, 67, 68, 69, 70, 71, 72, 73, 74, 75, 76, 77, 78, 79, 80, 81, 82, 83, 84, 85, 86, 87, 88, 89, 90, 91, 92, 93, 94, 95, 96, 97, 98, 99, 100, 101, 102, 103, 104, 105, 106, 107, 108, 109, 110, 111, 112, 113, 114, 115, 116, 117, 118, 119, 120, 121, 122, 123, 124, 125, 126, 127, 128, 129, 130, 131, 132, 133, 134, 135, 136, 137, 138, 139, 140, 141, 142, 143, 144, 145, 146, 147, 148, 149, 150, 151, 152, 153, 154, 155, 156, 157, 158, 159, 160, 161, 162, 163, 164, 165, 166, 167, 168, 169, 170, 171, 172, 173, 174, 175, 176, 177, 178, 179, 180, 181, 182, 183, 184, 185, 186, 187, 188, 189, 190, 191, 192, 193, 194, 195, 196, 197, 198, 199, 200, 201, 202, 203, 204, 205, 206, 207, 208, 209, 210, 211, 212, 213, 214, 215, 216, 217, 218, 219, 220, 221, 222, 223, 224, 225, 226, 227, 228, 229, 230, 231, 232, 233, 234, 235, 236, 237, 238, 239, 240, 241, 242, 243, 244, 245, 246, 247, 248, 249, 250, 251, 252, 253, 254, 255, 256, 257, 258, 259, 260, 261, 262, 263, 264, 265, 266, 267, 268, 269, 270, 271, 272, 273, 274, 275, 276, 277, 278, 279, 280, 281, 282, 283, 284, 285, 286, 287, 288, 289, 290, 291, 292, 293, 294, 295, 296, 297, 298, 299, 300, 301, 302, 303, 304, 305, 306, 307, 308, 309, 310, 311, 312, 313, 314, 315, 316, 317, 318, 319, 320, 321, 322, 323, 324, 325, 326, 327, 328, 329, 330, 331, 332, 333, 334, 335, 336, 337, 338, 339, 340, 341, 342, 343, 344, 345, 346, 347, 348, 349, 350, 351, 352, 353, 354, 355, 356, 357, 358, 359, 360, 361, 362, 363, 364, 365, 366, 367, 368, 369, 370, 371, 372, 373, 374, 375, 376, 377, 378, 379, 380, 381, 382, 383, 384, 385, 386, 387, 388, 389, 390, 391, 392, 393, 394, 395, 396, 397, 398, 399, 400, 401, 402, 403, 404, 405, 406, 407, 408, 409, 410, 411, 412, 413, 414, 415, 416, 417, 418, 419, 420, 421, 422, 423, 424, 425, 426, 427, 428, 429, 430, 431, 432, 433, 434, 435, 436, 437, 438, 439, 440, 441, 442, 443, 444, 445, 446, 447, 448, 449, 450, 451, 452, 453, 454, 455, 456, 457, 458, 459, 460, 461, 462, 463, 464, 465, 466, 467, 468, 469, 470, 471, 472, 473, 474, 475, 476, 477, 478, 479, 480, 481, 482, 483, 484, 485, 486, 487, 488, 489, 490, 491, 492, 493, 494, 495, 496, 497, 498, 499, 500, 501, 502, 503, 504, 505, 506, 507, 508, 509, 510], "AcquisitionTime": ["103203.710000", "103204.320000", "103204.930000", "103205.540000", "103206.150000", "103206.760000", "103207.370000", "103207.980000", "103208.590000", "103209.200000", "103209.810000", "103210.420000", "103211.030000", "103211.640000", "103212.250000", "103212.860000", "103213.470000", "103214.080000", "103214.690000", "103215.300000", "103215.910000", "103216.520000", "103217.130000", "103217.740000", "103218.350000", "103218.960000", "103219.570000", "103220.180000", "103220.790000", "103221.400000", "103222.010000", "103222.620000", "103223.230000", "103223.840000", "103224.450000", "103225.060000", "103225.670000", "103226.280000", "103226.890000", "103227.500000", "103228.110000", "103228.720000", "103229.330000", "103229.940000", "103230.550000", "103231.160000", "103231.770000", "103232.380000", "103232.990000", "103233.600000", "103234.210000", "103234.820000", "103235.430000", "103236.040000", "103236.650000", "103237.260000", "103237.870000", "103238.480000", "103239.090000", "103239.700000", "103240.310000", "103240.920000", "103241.530000", "103242.140000", "103242.750000", "103243.360000", "103243.970000", "103244.580000", "103245.190000", "103245.800000", "103246.410000", "103247.020000", "103247.630000", "103248.240000", "103248.850000", "103249.460000", "103250.070000", "103250.680000", "103251.290000", "103251.900000", "103252.510000", "103253.120000", "103253.730000", "103254.340000", "103254.950000", "103255.560000", "103256.170000", "103256.780000", "103257.390000", "103258.000000", "103258.610000", "103259.220000", "103259.830000", "103300.440000", "103301.050000", "103301.660000", "103302.270000", "103302.880000", "103303.490000", "103304.100000", "103304.710000", "103305.320000", "103305.930000", "103306.540000", "103307.150000", "103307.760000", "103308.370000", "103308.980000", "103309.590000", "103310.200000", "103310.810000", "103311.420000", "103312.030000", "103312.640000", "103313.250000", "103313.860000", "103314.470000", "103315.080000", "103315.690000", "103316.300000", "103316.910000", "103317.520000", "103318.130000", "103318.740000", "103319.350000", "103319.960000", "103320.570000", "103321.180000", "103321.790000", "103322.400000", "103323.010000", "103323.620000", "103324.230000", "103324.840000", "103325.450000", "103326.060000", "103326.670000", "103327.280000", "103327.890000", "103328.500000", "103329.110000", "103329.720000", "103330.330000", "103330.940000", "103331.550000", "103332.160000", "103332.770000", "103333.380000", "103333.990000", "103334.600000", "103335.210000", "103335.820000", "103336.430000", "103337.040000", "103337.650000", "103338.260000", "103338.870000", "103339.480000", "103340.090000", "103340.700000", "103341.310000", "103341.920000", "103342.530000", "103343.140000", "103343.750000", "103344.360000", "103344.970000", "103345.580000", "103346.190000", "103346.800000", "103347.410000", "103348.020000", "103348.630000", "103349.240000", "103349.850000", "103350.460000", "103351.070000", "103351.680000", "103352.290000", "103352.900000", "103353.510000", "103354.120000", "103354.730000", "103355.340000", "103355.950000", "103356.560000", "103357.170000", "103357.780000", "103358.390000", "103359.000000", "103359.610000", "103400.220000", "103400.830000", "103401.440000", "103402.050000", "103402.660000", "103403.270000", "103403.880000", "103404.490000", "103405.100000", "103405.710000", "103406.320000", "103406.930000", "103407.540000", "103408.150000", "103408.760000", "103409.370000", "103409.980000", "103410.590000", "103411.200000", "103411.810000", "103412.420000", "103413.030000", "103413.640000", "103414.250000", "103414.860000", "103415.470000", "103416.080000", "103416.690000", "103417.300000", "103417.910000", "103418.520000", "103419.130000", "103419.740000", "103420.350000", "103420.960000", "103421.570000", "103422.180000", "103422.790000", "103423.400000", "103424.010000", "103424.620000", "103425.230000", "103425.840000", "103426.450000", "103427.060000", "103427.670000", "103428.280000", "103428.890000", "103429.500000", "103430.110000", "103430.720000", "103431.330000", "103431.940000", "103432.550000", "103433.160000", "103433.770000", "103434.380000", "103434.990000", "103435.600000", "103436.210000", "103436.820000", "103437.430000", "103438.040000", "103438.650000", "103439.260000", "103439.870000", "103440.480000", "103441.090000", "103441.700000", "103442.310000", "103442.920000", "103443.530000", "103444.140000", "103444.750000", "103445.360000", "103445.970000", "103446.580000", "103447.190000", "103447.800000", "103448.410000", "103449.020000", "103449.630000", "103450.240000", "103450.850000", "103451.460000", "103452.070000", "103452.680000", "103453.290000", "103453.900000", "103454.510000", "103455.120000", "103455.730000", "103456.340000", "103456.950000", "103457.560000", "103458.170000", "103458.780000", "103459.390000", "103500.000000", "103500.610000", "103501.220000", "103501.830000", "103502.440000", "103503.050000", "103503.660000", "103504.270000", "103504.880000", "103505.490000", "103506.100000", "103506.710000", "103507.320000", "103507.930000", "103508.540000", "103509.150000", "103509.760000", "103510.370000", "103510.980000", "103511.590000", "103512.200000", "103512.810000", "103513.420000", "103514.030000", "103514.640000", "103515.250000", "103515.860000", "103516.470000", "103517.080000", "103517.690000", "103518.300000", "103518.910000", "103519.520000", "103520.130000", "103520.740000", "103521.350000", "103521.960000", "103522.570000", "103523.180000", "103523.790000", "103524.400000", "103525.010000", "103525.620000", "103526.230000", "103526.840000", "103527.450000", "103528.060000", "103528.670000", "103529.280000", "103529.890000", "103530.500000", "103531.110000", "103531.720000", "103532.330000", "103532.940000", "103533.550000", "103534.160000", "103534.770000", "103535.380000", "103535.990000", "103536.600000", "103537.210000", "103537.820000", "103538.430000", "103539.040000", "103539.650000", "103540.260000", "103540.870000", "103541.480000", "103542.090000", "103542.700000", "103543.310000", "103543.920000", "103544.530000", "103545.140000", "103545.750000", "103546.360000", "103546.970000", "103547.580000", "103548.190000", "103548.800000", "103549.410000", "103550.020000", "103550.630000", "103551.240000", "103551.850000", "103552.460000", "103553.070000", "103553.680000", "103554.290000", "103554.900000", "103555.510000", "103556.120000", "103556.730000", "103557.340000", "103557.950000", "103558.560000", "103559.170000", "103559.780000", "103600.390000", "103601.000000", "103601.610000", "103602.220000", "103602.830000", "103603.440000", "103604.050000", "103604.660000", "103605.270000", "103605.880000", "103606.490000", "103607.100000", "103607.710000", "103608.320000", "103608.930000", "103609.540000", "103610.150000", "103610.760000", "103611.370000", "103611.980000", "103612.590000", "103613.200000", "103613.810000", "103614.420000", "103615.030000", "103615.640000", "103616.250000", "103616.860000", "103617.470000", "103618.080000", "103618.690000", "103619.300000", "103619.910000", "103620.520000", "103621.130000", "103621.740000", "103622.350000", "103622.960000", "103623.570000", "103624.180000", "103624.790000", "103625.400000", "103626.010000", "103626.620000", "103627.230000", "103627.840000", "103628.450000", "103629.060000", "103629.670000", "103630.280000", "103630.890000", "103631.500000", "103632.110000", "103632.720000", "103633.330000", "103633.940000", "103634.550000", "103635.160000", "103635.770000", "103636.380000", "103636.990000", "103637.600000", "103638.210000", "103638.820000", "103639.430000", "103640.040000", "103640.650000", "103641.260000", "103641.870000", "103642.480000", "103643.090000", "103643.700000", "103644.310000", "103644.920000", "103645.530000", "103646.140000", "103646.750000", "103647.360000", "103647.970000", "103648.580000", "103649.190000", "103649.800000", "103650.410000", "103651.020000", "103651.630000", "103652.240000", "103652.850000", "103653.460000", "103654.070000", "103654.680000", "103655.290000", "103655.900000", "103656.510000", "103657.120000", "103657.730000", "103658.340000", "103658.950000", "103659.560000", "103700.170000", "103700.780000", "103701.390000", "103702.000000", "103702.610000", "103703.220000", "103703.830000", "103704.440000", "103705.050000", "103705.660000", "103706.270000", "103706.880000", "103707.490000", "103708.100000", "103708.710000", "103709.320000", "103709.930000", "103710.540000", "103711.150000", "103711.760000", "103712.370000", "103712.980000", "103713.590000", "103714.200000"], "ContentTime": ["103220.999000", "103221.003000", "103221.005000", "103221.007000", "103221.010000", "103221.012000", "103221.015000", "103221.017000", "103221.020000", "103221.022000", "103221.024000", "103221.027000", "103221.029000", "103221.031000", "103221.034000", "103221.036000", "103221.039000", "103221.041000", "103221.043000", "103221.046000", "103221.059000", "103221.061000", "103221.068000", "103221.070000", "103221.072000", "103221.075000", "103221.077000", "103240.995000", "103240.998000", "103241.000000", "103241.002000", "103241.005000", "103241.007000", "103241.010000", "103241.012000", "103241.014000", "103241.017000", "103241.020000", "103241.022000", "103241.025000", "103241.027000", "103241.029000", "103241.032000", "103241.034000", "103241.036000", "103241.039000", "103241.041000", "103241.044000", "103241.046000", "103241.048000", "103241.051000", "103241.053000", "103241.055000", "103241.058000", "103241.060000", "103241.062000", "103241.065000", "103241.067000", "103241.070000", "103241.072000", "103300.995000", "103300.998000", "103301.023000", "103301.026000", "103301.028000", "103301.030000", "103301.033000", "103301.035000", "103301.038000", "103301.040000", "103301.042000", "103301.045000", "103301.047000", "103301.049000", "103301.052000", "103301.054000", "103301.057000", "103301.059000", "103301.061000", "103301.064000", "103301.066000", "103301.068000", "103301.071000", "103301.073000", "103301.076000", "103301.078000", "103301.080000", "103301.083000", "103301.085000", "103301.087000", "103301.090000", "103301.092000", "103301.095000", "103320.995000", "103320.998000", "103321.000000", "103321.002000", "103321.005000", "103321.018000", "103321.020000", "103321.022000", "103321.025000", "103321.028000", "103321.030000", "103321.032000", "103321.035000", "103321.037000", "103321.040000", "103321.042000", "103321.044000", "103321.047000", "103321.049000", "103321.051000", "103321.054000", "103321.056000", "103321.058000", "103321.061000", "103321.063000", "103321.066000", "103321.068000", "103321.070000", "103321.073000", "103321.075000", "103321.077000", "103321.080000", "103321.082000", "103340.995000", "103340.998000", "103341.000000", "103341.003000", "103341.005000", "103341.008000", "103341.010000", "103341.012000", "103341.015000", "103341.017000", "103341.019000", "103341.022000", "103341.024000", "103341.026000", "103341.029000", "103341.031000", "103341.033000", "103341.036000", "103341.038000", "103341.041000", "103341.043000", "103341.045000", "103341.048000", "103341.050000", "103341.052000", "103341.055000", "103341.057000", "103341.059000", "103341.062000", "103341.064000", "103341.067000", "103341.069000", "103341.071000", "103400.994000", "103400.997000", "103401.000000", "103401.003000", "103401.029000", "103401.031000", "103401.034000", "103401.036000", "103401.038000", "103401.041000", "103401.043000", "103401.045000", "103401.048000", "103401.051000", "103401.053000", "103401.055000", "103401.058000", "103401.060000", "103401.063000", "103401.065000", "103401.068000", "103401.070000", "103401.072000", "103401.075000", "103401.077000", "103401.080000", "103401.082000", "103401.084000", "103401.087000", "103401.089000", "103401.091000", "103401.094000", "103420.994000", "103420.997000", "103420.999000", "103421.001000", "103421.004000", "103421.006000", "103421.009000", "103421.011000", "103421.014000", "103421.016000", "103421.018000", "103421.021000", "103421.023000", "103421.026000", "103421.028000", "103421.030000", "103421.033000", "103421.035000", "103421.037000", "103421.040000", "103421.042000", "103421.045000", "103421.047000", "103421.049000", "103421.052000", "103421.054000", "103421.057000", "103421.060000", "103421.062000", "103421.065000", "103421.067000", "103421.069000", "103421.072000", "103440.994000", "103440.997000", "103440.999000", "103441.002000", "103441.004000", "103441.007000", "103441.009000", "103441.011000", "103441.014000", "103441.016000", "103441.018000", "103441.021000", "103441.023000", "103441.025000", "103441.028000", "103441.030000", "103441.033000", "103441.035000", "103441.037000", "103441.040000", "103441.042000", "103441.044000", "103441.047000", "103441.049000", "103441.051000", "103441.054000", "103441.057000", "103441.059000", "103441.061000", "103441.064000", "103441.066000", "103441.069000", "103441.071000", "103500.995000", "103500.999000", "103501.001000", "103501.003000", "103501.006000", "103501.008000", "103501.010000", "103501.013000", "103501.015000", "103501.018000", "103501.020000", "103501.022000", "103501.025000", "103501.027000", "103501.029000", "103501.032000", "103501.034000", "103501.037000", "103501.039000", "103501.041000", "103501.044000", "103501.046000", "103501.049000", "103501.051000", "103501.053000", "103501.056000", "103501.058000", "103501.060000", "103501.063000", "103501.065000", "103501.068000", "103501.070000", "103501.072000", "103520.995000", "103520.998000", "103521.000000", "103521.003000", "103521.005000", "103521.007000", "103521.010000", "103521.012000", "103521.015000", "103521.017000", "103521.020000", "103521.022000", "103521.024000", "103521.027000", "103521.029000", "103521.032000", "103521.034000", "103521.036000", "103521.039000", "103521.041000", "103521.044000", "103521.046000", "103521.048000", "103521.051000", "103521.053000", "103521.055000", "103521.058000", "103521.060000", "103521.062000", "103521.065000", "103521.067000", "103521.070000", "103521.072000", "103540.995000", "103540.998000", "103541.001000", "103541.004000", "103541.007000", "103541.009000", "103541.011000", "103541.014000", "103541.016000", "103541.019000", "103541.021000", "103541.024000", "103541.026000", "103541.029000", "103541.031000", "103541.033000", "103541.036000", "103541.038000", "103541.040000", "103541.043000", "103541.045000", "103541.047000", "103541.050000", "103541.052000", "103541.055000", "103541.057000", "103541.059000", "103541.062000", "103541.064000", "103541.066000", "103541.069000", "103541.071000", "103600.995000", "103600.998000", "103601.001000", "103601.004000", "103601.006000", "103601.009000", "103601.011000", "103601.013000", "103601.016000", "103601.018000", "103601.021000", "103601.023000", "103601.025000", "103601.028000", "103601.030000", "103601.033000", "103601.035000", "103601.038000", "103601.040000", "103601.042000", "103601.045000", "103601.047000", "103601.050000", "103601.052000", "103601.054000", "103601.063000", "103601.065000", "103601.067000", "103601.070000", "103601.072000", "103601.075000", "103601.077000", "103601.079000", "103620.994000", "103620.997000", "103621.000000", "103621.002000", "103621.005000", "103621.007000", "103621.010000", "103621.012000", "103621.014000", "103621.017000", "103621.019000", "103621.022000", "103621.024000", "103621.026000", "103621.029000", "103621.031000", "103621.034000", "103621.036000", "103621.039000", "103621.041000", "103621.044000", "103621.046000", "103621.048000", "103621.051000", "103621.053000", "103621.055000", "103621.058000", "103621.060000", "103621.063000", "103621.065000", "103621.068000", "103621.070000", "103621.072000", "103640.994000", "103640.997000", "103641.000000", "103641.002000", "103641.005000", "103641.007000", "103641.010000", "103641.012000", "103641.014000", "103641.017000", "103641.019000", "103641.021000", "103641.024000", "103641.026000", "103641.029000", "103641.031000", "103641.033000", "103641.036000", "103641.038000", "103641.040000", "103641.043000", "103641.045000", "103641.047000", "103641.050000", "103641.052000", "103641.054000", "103641.057000", "103641.059000", "103641.062000", "103641.064000", "103641.066000", "103641.069000", "103641.071000", "103700.994000", "103700.997000", "103700.999000", "103701.001000", "103701.004000", "103701.006000", "103701.008000", "103701.011000", "103701.013000", "103701.015000", "103701.023000", "103701.025000", "103701.028000", "103701.030000", "103701.033000", "103701.035000", "103701.037000", "103701.040000", "103701.042000", "103701.045000", "103701.047000", "103701.050000", "103701.052000", "103701.055000", "103701.057000", "103701.059000", "103701.062000", "103701.064000", "103701.067000", "103701.069000", "103701.071000", "103701.074000", "103715.035000", "103715.038000", "103715.040000", "103715.042000", "103715.045000", "103715.047000", "103715.050000", "103715.052000", "103715.054000", "103715.057000", "103715.059000", "103715.061000", "103715.064000", "103715.066000", "103715.069000", "103715.072000", "103715.074000", "103715.076000", "103715.079000", "103715.081000", "103715.084000", "103715.086000", "103715.088000", "103715.091000"], "InstanceCreationTime": ["103220.999000", "103221.003000", "103221.005000", "103221.007000", "103221.010000", "103221.012000", "103221.015000", "103221.017000", "103221.020000", "103221.022000", "103221.024000", "103221.027000", "103221.029000", "103221.031000", "103221.034000", "103221.036000", "103221.039000", "103221.041000", "103221.043000", "103221.046000", "103221.059000", "103221.061000", "103221.068000", "103221.070000", "103221.072000", "103221.075000", "103221.077000", "103240.995000", "103240.998000", "103241.000000", "103241.002000", "103241.005000", "103241.007000", "103241.010000", "103241.012000", "103241.014000", "103241.017000", "103241.020000", "103241.022000", "103241.025000", "103241.027000", "103241.029000", "103241.032000", "103241.034000", "103241.036000", "103241.039000", "103241.041000", "103241.044000", "103241.046000", "103241.048000", "103241.051000", "103241.053000", "103241.055000", "103241.058000", "103241.060000", "103241.062000", "103241.065000", "103241.067000", "103241.070000", "103241.072000", "103300.995000", "103300.998000", "103301.023000", "103301.026000", "103301.028000", "103301.030000", "103301.033000", "103301.035000", "103301.038000", "103301.040000", "103301.042000", "103301.045000", "103301.047000", "103301.049000", "103301.052000", "103301.054000", "103301.057000", "103301.059000", "103301.061000", "103301.064000", "103301.066000", "103301.068000", "103301.071000", "103301.073000", "103301.076000", "103301.078000", "103301.080000", "103301.083000", "103301.085000", "103301.087000", "103301.090000", "103301.092000", "103301.095000", "103320.995000", "103320.998000", "103321.000000", "103321.002000", "103321.005000", "103321.018000", "103321.020000", "103321.022000", "103321.025000", "103321.028000", "103321.030000", "103321.032000", "103321.035000", "103321.037000", "103321.040000", "103321.042000", "103321.044000", "103321.047000", "103321.049000", "103321.051000", "103321.054000", "103321.056000", "103321.058000", "103321.061000", "103321.063000", "103321.066000", "103321.068000", "103321.070000", "103321.073000", "103321.075000", "103321.077000", "103321.080000", "103321.082000", "103340.995000", "103340.998000", "103341.000000", "103341.003000", "103341.005000", "103341.008000", "103341.010000", "103341.012000", "103341.015000", "103341.017000", "103341.019000", "103341.022000", "103341.024000", "103341.026000", "103341.029000", "103341.031000", "103341.033000", "103341.036000", "103341.038000", "103341.041000", "103341.043000", "103341.045000", "103341.048000", "103341.050000", "103341.052000", "103341.055000", "103341.057000", "103341.059000", "103341.062000", "103341.064000", "103341.067000", "103341.069000", "103341.071000", "103400.994000", "103400.997000", "103401.000000", "103401.003000", "103401.029000", "103401.031000", "103401.034000", "103401.036000", "103401.038000", "103401.041000", "103401.043000", "103401.045000", "103401.048000", "103401.051000", "103401.053000", "103401.055000", "103401.058000", "103401.060000", "103401.063000", "103401.065000", "103401.068000", "103401.070000", "103401.072000", "103401.075000", "103401.077000", "103401.080000", "103401.082000", "103401.084000", "103401.087000", "103401.089000", "103401.091000", "103401.094000", "103420.994000", "103420.997000", "103420.999000", "103421.001000", "103421.004000", "103421.006000", "103421.009000", "103421.011000", "103421.014000", "103421.016000", "103421.018000", "103421.021000", "103421.023000", "103421.026000", "103421.028000", "103421.030000", "103421.033000", "103421.035000", "103421.037000", "103421.040000", "103421.042000", "103421.045000", "103421.047000", "103421.049000", "103421.052000", "103421.054000", "103421.057000", "103421.060000", "103421.062000", "103421.065000", "103421.067000", "103421.069000", "103421.072000", "103440.994000", "103440.997000", "103440.999000", "103441.002000", "103441.004000", "103441.007000", "103441.009000", "103441.011000", "103441.014000", "103441.016000", "103441.018000", "103441.021000", "103441.023000", "103441.025000", "103441.028000", "103441.030000", "103441.033000", "103441.035000", "103441.037000", "103441.040000", "103441.042000", "103441.044000", "103441.047000", "103441.049000", "103441.051000", "103441.054000", "103441.057000", "103441.059000", "103441.061000", "103441.064000", "103441.066000", "103441.069000", "103441.071000", "103500.995000", "103500.999000", "103501.001000", "103501.003000", "103501.006000", "103501.008000", "103501.010000", "103501.013000", "103501.015000", "103501.018000", "103501.020000", "103501.022000", "103501.025000", "103501.027000", "103501.029000", "103501.032000", "103501.034000", "103501.037000", "103501.039000", "103501.041000", "103501.044000", "103501.046000", "103501.049000", "103501.051000", "103501.053000", "103501.056000", "103501.058000", "103501.060000", "103501.063000", "103501.065000", "103501.068000", "103501.070000", "103501.072000", "103520.995000", "103520.998000", "103521.000000", "103521.003000", "103521.005000", "103521.007000", "103521.010000", "103521.012000", "103521.015000", "103521.017000", "103521.020000", "103521.022000", "103521.024000", "103521.027000", "103521.029000", "103521.032000", "103521.034000", "103521.036000", "103521.039000", "103521.041000", "103521.044000", "103521.046000", "103521.048000", "103521.051000", "103521.053000", "103521.055000", "103521.058000", "103521.060000", "103521.062000", "103521.065