{"AcquisitionMatrixPE": 64, "AcquisitionNumber": 1, "AcquisitionTime": "15:46:8.732500", "BandwidthPerPixelPhaseEncode": 28.935, "BaseResolution": 64, "BodyPartExamined": "BRAIN", "CoilCombinationMethod": "Sum of Squares", "ConsistencyInfo": "N4_VE11E_LATEST_20181129", "ConversionSoftware": "dcm2niix", "ConversionSoftwareVersion": "v1.0.20230411", "DerivedVendorReportedEchoSpacing": 0.000540003, "DeviceSerialNumber": "166182", "DwellTime": 3.4e-06, "EchoTime": 0.032, "EchoTrainLength": 64, "EffectiveEchoSpacing": 0.000540003, "FlipAngle": 40, "HeudiconvVersion": "0.13.1", "ImageOrientationPatientDICOM": [0.991211, 0.100925, -0.0855292, -0.098936, 0.994722, 0.0271931], "ImageOrientationText": "Tra>Sag(-5.0)>Cor(1.1)", "ImageType": ["ORIGINAL", "PRIMARY", "M", "ND", "NORM", "MOSAIC"], "ImagingFrequency": 123.257031, "InPlanePhaseEncodingDirectionDICOM": "COL", "InstitutionAddress": "PEARSE STREET .,City,District,IE,D2", "InstitutionName": "TCIN", "InstitutionalDepartmentName": "MRI", "MRAcquisitionType": "2D", "MagneticFieldStrength": 3, "Manufacturer": "Siemens", "ManufacturersModelName": "Prisma", "Modality": "MR", "MultibandAccelerationFactor": 4, "NonlinearGradientCorrection": false, "PartialFourier": 1, "PatientPosition": "HFS", "PercentPhaseFOV": 100, "PercentSampling": 100, "PhaseEncodingDirection": "j-", "PhaseEncodingSteps": 64, "PhaseResolution": 1, "PixelBandwidth": 2300, "ProcedureStepDescription": "Rhodri^Head BOLD", "ProtocolName": "cmrr_mbep2d_Pictures_AP_RDS", "PulseSequenceDetails": "%SiemensSeq%\\ep2d_bold", "ReceiveCoilActiveElements": "HC2,4,6,7;SC", "ReceiveCoilName": "SpecialPurpose_4", "ReconMatrixPE": 64, "RefLinesPE": 12, "RepetitionTime": 0.61, "SAR": 0.268695, "ScanOptions": "FS", "ScanningSequence": "EP", "SequenceName": "*epfid2d1_64", "SequenceVariant": "SK", "SeriesDescription": "cmrr_mbep2d_Pictures_AP_RDS", "SeriesNumber": 8, "ShimSetting": [-3735, -7505, 3898, 914, 82, 298, 266, -39], "SliceThickness": 3, "SliceTiming": [0.2625, 0, 0.3275, 0.0675, 0.395, 0.1325, 0.46, 0.1975, 0.525, 0.2625, 0, 0.3275, 0.0675, 0.395, 0.1325, 0.46, 0.1975, 0.525, 0.2625, 0, 0.3275, 0.0675, 0.395, 0.1325, 0.46, 0.1975, 0.525, 0.2625, 0, 0.3275, 0.0675, 0.395, 0.1325, 0.46, 0.1975, 0.525], "SoftwareVersions": "syngo MR E11", "SpacingBetweenSlices": 3.3, "StationName": "AWP166182", "TaskName": "pictures", "TotalReadoutTime": 0.0340202, "TxRefAmp": 240.263, "dcmmeta_affine": [[-2.973632574081421, -0.29680800437927246, -0.2898135781288147, 110.44953155517578], [-0.30277472734451294, 2.9841666221618652, 0.06102408096194267, -96.98524475097656], [-0.2565877139568329, -0.08157921582460403, 3.2866828441619873, -89.72525787353516], [0.0, 0.0, 0.0, 1.0]], "dcmmeta_reorient_transform": [[0.0, -1.0, 0.0, 63.0], [1.0, 0.0, 0.0, 0.0], [0.0, 0.0, 1.0, 0.0], [0.0, 0.0, 0.0, 1.0]], "dcmmeta_shape": [64, 64, 36, 510], "dcmmeta_slice_dim": 2, "dcmmeta_version": 0.6, "global": {"const": {"AcquisitionMatrix": [64, 0, 0, 64], "AngioFlag": "N", "BitsAllocated": 16, "BitsStored": 12, "BodyPartExamined": "BRAIN", "Columns": 384, "EchoNumbers": 1, "EchoTime": 32.0, "EchoTrainLength": 64, "FlipAngle": 40.0, "HighBit": 11, "ImageOrientationPatient": [0.99121083133517, 0.10092490497298, -0.0855292429525, -0.0989360032937, 0.99472217432721, 0.02719307180158], "ImagePositionPatient": [-520.04254223911, -616.92784073904, -66.863384643115], "ImageType": ["ORIGINAL", "PRIMARY", "M", "ND", "NORM", "MOSAIC"], "ImagedNucleus": "1H", "ImagingFrequency": 123.257031, "InPlanePhaseEncodingDirection": "COL", "MRAcquisitionType": "2D", "MagneticFieldStrength": 3.0, "Manufacturer": "SIEMENS", "ManufacturerModelName": "Prisma", "Modality": "MR", "NumberOfAverages": 1.0, "NumberOfPhaseEncodingSteps": 64, "PercentPhaseFieldOfView": 100.0, "PercentSampling": 100.0, "PerformedProcedureStepStartTime": "152821.974000", "PhotometricInterpretation": "MONOCHROME2", "PixelBandwidth": 2300.0, "PixelRepresentation": 0, "PixelSpacing": [3.0, 3.0], "ProtocolName": "cmrr_mbep2d_Pictures_AP_RDS", "RepetitionTime": 610.0, "Rows": 384, "SAR": 0.26869513919852, "SamplesPerPixel": 1, "ScanOptions": "FS", "ScanningSequence": "EP", "SequenceName": "*epfid2d1_64", "SequenceVariant": "SK", "SeriesDescription": "cmrr_mbep2d_Pictures_AP_RDS", "SeriesNumber": 8, "SeriesTime": "154638.641000", "SliceLocation": -100.85656621812, "SliceThickness": 3.0, "SmallestImagePixelValue": 0, "SoftwareVersions": "syngo MR E11", "SpacingBetweenSlices": 3.300000013887, "SpecificCharacterSet": "ISO_IR 100", "StudyID": "2", "StudyTime": "152821.875000", "TransmitCoilName": "Body", "VariableFlipAngleFlag": "N", "WindowCenterWidthExplanation": "Algo1"}, "slices": {}}, "time": {"samples": {"AcquisitionNumber": [1, 2, 3, 4, 5, 6, 7, 8, 9, 10, 11, 12, 13, 14, 15, 16, 17, 18, 19, 20, 21, 22, 23, 24, 25, 26, 27, 28, 29, 30, 31, 32, 33, 34, 35, 36, 37, 38, 39, 40, 41, 42, 43, 44, 45, 46, 47, 48, 49, 50, 51, 52, 53, 54, 55, 56, 57, 58, 59, 60, 61, 62, 63, 64, 65, 66, 67, 68, 69, 70, 71, 72, 73, 74, 75, 76, 77, 78, 79, 80, 81, 82, 83, 84, 85, 86, 87, 88, 89, 90, 91, 92, 93, 94, 95, 96, 97, 98, 99, 100, 101, 102, 103, 104, 105, 106, 107, 108, 109, 110, 111, 112, 113, 114, 115, 116, 117, 118, 119, 120, 121, 122, 123, 124, 125, 126, 127, 128, 129, 130, 131, 132, 133, 134, 135, 136, 137, 138, 139, 140, 141, 142, 143, 144, 145, 146, 147, 148, 149, 150, 151, 152, 153, 154, 155, 156, 157, 158, 159, 160, 161, 162, 163, 164, 165, 166, 167, 168, 169, 170, 171, 172, 173, 174, 175, 176, 177, 178, 179, 180, 181, 182, 183, 184, 185, 186, 187, 188, 189, 190, 191, 192, 193, 194, 195, 196, 197, 198, 199, 200, 201, 202, 203, 204, 205, 206, 207, 208, 209, 210, 211, 212, 213, 214, 215, 216, 217, 218, 219, 220, 221, 222, 223, 224, 225, 226, 227, 228, 229, 230, 231, 232, 233, 234, 235, 236, 237, 238, 239, 240, 241, 242, 243, 244, 245, 246, 247, 248, 249, 250, 251, 252, 253, 254, 255, 256, 257, 258, 259, 260, 261, 262, 263, 264, 265, 266, 267, 268, 269, 270, 271, 272, 273, 274, 275, 276, 277, 278, 279, 280, 281, 282, 283, 284, 285, 286, 287, 288, 289, 290, 291, 292, 293, 294, 295, 296, 297, 298, 299, 300, 301, 302, 303, 304, 305, 306, 307, 308, 309, 310, 311, 312, 313, 314, 315, 316, 317, 318, 319, 320, 321, 322, 323, 324, 325, 326, 327, 328, 329, 330, 331, 332, 333, 334, 335, 336, 337, 338, 339, 340, 341, 342, 343, 344, 345, 346, 347, 348, 349, 350, 351, 352, 353, 354, 355, 356, 357, 358, 359, 360, 361, 362, 363, 364, 365, 366, 367, 368, 369, 370, 371, 372, 373, 374, 375, 376, 377, 378, 379, 380, 381, 382, 383, 384, 385, 386, 387, 388, 389, 390, 391, 392, 393, 394, 395, 396, 397, 398, 399, 400, 401, 402, 403, 404, 405, 406, 407, 408, 409, 410, 411, 412, 413, 414, 415, 416, 417, 418, 419, 420, 421, 422, 423, 424, 425, 426, 427, 428, 429, 430, 431, 432, 433, 434, 435, 436, 437, 438, 439, 440, 441, 442, 443, 444, 445, 446, 447, 448, 449, 450, 451, 452, 453, 454, 455, 456, 457, 458, 459, 460, 461, 462, 463, 464, 465, 466, 467, 468, 469, 470, 471, 472, 473, 474, 475, 476, 477, 478, 479, 480, 481, 482, 483, 484, 485, 486, 487, 488, 489, 490, 491, 492, 493, 494, 495, 496, 497, 498, 499, 500, 501, 502, 503, 504, 505, 506, 507, 508, 509, 510], "AcquisitionTime": ["154608.732500", "154609.342500", "154609.952500", "154610.562500", "154611.172500", "154611.782500", "154612.392500", "154613.002500", "154613.612500", "154614.222500", "154614.832500", "154615.442500", "154616.052500", "154616.662500", "154617.272500", "154617.882500", "154618.492500", "154619.102500", "154619.712500", "154620.322500", "154620.932500", "154621.542500", "154622.152500", "154622.762500", "154623.372500", "154623.982500", "154624.592500", "154625.202500", "154625.812500", "154626.422500", "154627.032500", "154627.642500", "154628.252500", "154628.862500", "154629.472500", "154630.082500", "154630.692500", "154631.302500", "154631.912500", "154632.522500", "154633.132500", "154633.742500", "154634.352500", "154634.962500", "154635.572500", "154636.182500", "154636.792500", "154637.402500", "154638.012500", "154638.622500", "154639.232500", "154639.842500", "154640.452500", "154641.062500", "154641.672500", "154642.282500", "154642.892500", "154643.502500", "154644.112500", "154644.722500", "154645.332500", "154645.942500", "154646.552500", "154647.162500", "154647.772500", "154648.382500", "154648.992500", "154649.602500", "154650.212500", "154650.822500", "154651.432500", "154652.042500", "154652.652500", "154653.262500", "154653.872500", "154654.482500", "154655.092500", "154655.702500", "154656.312500", "154656.922500", "154657.532500", "154658.142500", "154658.752500", "154659.362500", "154659.972500", "154700.582500", "154701.192500", "154701.802500", "154702.412500", "154703.022500", "154703.632500", "154704.242500", "154704.852500", "154705.462500", "154706.072500", "154706.682500", "154707.292500", "154707.902500", "154708.512500", "154709.122500", "154709.732500", "154710.342500", "154710.952500", "154711.562500", "154712.172500", "154712.782500", "154713.392500", "154714.002500", "154714.612500", "154715.222500", "154715.832500", "154716.442500", "154717.052500", "154717.662500", "154718.272500", "154718.882500", "154719.492500", "154720.102500", "154720.712500", "154721.322500", "154721.932500", "154722.542500", "154723.152500", "154723.762500", "154724.372500", "154724.982500", "154725.592500", "154726.202500", "154726.812500", "154727.422500", "154728.032500", "154728.642500", "154729.252500", "154729.862500", "154730.472500", "154731.082500", "154731.692500", "154732.302500", "154732.912500", "154733.522500", "154734.132500", "154734.742500", "154735.352500", "154735.962500", "154736.572500", "154737.182500", "154737.792500", "154738.402500", "154739.012500", "154739.622500", "154740.232500", "154740.842500", "154741.452500", "154742.062500", "154742.672500", "154743.282500", "154743.892500", "154744.502500", "154745.112500", "154745.722500", "154746.332500", "154746.942500", "154747.552500", "154748.162500", "154748.772500", "154749.382500", "154749.992500", "154750.602500", "154751.212500", "154751.822500", "154752.432500", "154753.042500", "154753.652500", "154754.262500", "154754.872500", "154755.482500", "154756.092500", "154756.702500", "154757.312500", "154757.922500", "154758.532500", "154759.142500", "154759.752500", "154800.362500", "154800.972500", "154801.582500", "154802.192500", "154802.802500", "154803.412500", "154804.022500", "154804.632500", "154805.242500", "154805.852500", "154806.462500", "154807.072500", "154807.682500", "154808.292500", "154808.902500", "154809.512500", "154810.122500", "154810.732500", "154811.342500", "154811.952500", "154812.562500", "154813.172500", "154813.782500", "154814.392500", "154815.002500", "154815.612500", "154816.222500", "154816.832500", "154817.442500", "154818.052500", "154818.662500", "154819.272500", "154819.882500", "154820.492500", "154821.102500", "154821.712500", "154822.322500", "154822.932500", "154823.542500", "154824.152500", "154824.762500", "154825.372500", "154825.982500", "154826.592500", "154827.202500", "154827.812500", "154828.422500", "154829.032500", "154829.642500", "154830.252500", "154830.862500", "154831.472500", "154832.082500", "154832.692500", "154833.302500", "154833.912500", "154834.522500", "154835.132500", "154835.742500", "154836.352500", "154836.962500", "154837.572500", "154838.182500", "154838.792500", "154839.402500", "154840.012500", "154840.622500", "154841.232500", "154841.842500", "154842.452500", "154843.062500", "154843.672500", "154844.282500", "154844.892500", "154845.502500", "154846.112500", "154846.722500", "154847.332500", "154847.942500", "154848.552500", "154849.162500", "154849.772500", "154850.382500", "154850.992500", "154851.602500", "154852.212500", "154852.822500", "154853.432500", "154854.042500", "154854.652500", "154855.262500", "154855.872500", "154856.482500", "154857.092500", "154857.702500", "154858.312500", "154858.922500", "154859.532500", "154900.142500", "154900.752500", "154901.362500", "154901.972500", "154902.582500", "154903.192500", "154903.802500", "154904.412500", "154905.022500", "154905.632500", "154906.242500", "154906.852500", "154907.462500", "154908.072500", "154908.682500", "154909.292500", "154909.902500", "154910.512500", "154911.122500", "154911.732500", "154912.342500", "154912.952500", "154913.562500", "154914.172500", "154914.782500", "154915.392500", "154916.002500", "154916.612500", "154917.222500", "154917.832500", "154918.442500", "154919.052500", "154919.662500", "154920.272500", "154920.882500", "154921.492500", "154922.102500", "154922.712500", "154923.322500", "154923.932500", "154924.542500", "154925.152500", "154925.762500", "154926.372500", "154926.982500", "154927.592500", "154928.202500", "154928.812500", "154929.422500", "154930.032500", "154930.642500", "154931.252500", "154931.862500", "154932.472500", "154933.082500", "154933.692500", "154934.302500", "154934.912500", "154935.522500", "154936.132500", "154936.742500", "154937.352500", "154937.962500", "154938.572500", "154939.182500", "154939.792500", "154940.402500", "154941.012500", "154941.622500", "154942.232500", "154942.842500", "154943.452500", "154944.062500", "154944.672500", "154945.282500", "154945.892500", "154946.502500", "154947.112500", "154947.722500", "154948.332500", "154948.942500", "154949.552500", "154950.162500", "154950.772500", "154951.382500", "154951.992500", "154952.602500", "154953.212500", "154953.822500", "154954.432500", "154955.042500", "154955.652500", "154956.262500", "154956.872500", "154957.482500", "154958.092500", "154958.702500", "154959.312500", "154959.922500", "155000.532500", "155001.142500", "155001.752500", "155002.362500", "155002.972500", "155003.582500", "155004.192500", "155004.802500", "155005.412500", "155006.022500", "155006.632500", "155007.242500", "155007.852500", "155008.462500", "155009.072500", "155009.682500", "155010.292500", "155010.902500", "155011.512500", "155012.122500", "155012.732500", "155013.342500", "155013.952500", "155014.562500", "155015.172500", "155015.782500", "155016.392500", "155017.002500", "155017.612500", "155018.222500", "155018.832500", "155019.442500", "155020.052500", "155020.662500", "155021.272500", "155021.882500", "155022.492500", "155023.102500", "155023.712500", "155024.322500", "155024.932500", "155025.542500", "155026.152500", "155026.762500", "155027.372500", "155027.982500", "155028.592500", "155029.202500", "155029.812500", "155030.422500", "155031.032500", "155031.642500", "155032.252500", "155032.862500", "155033.472500", "155034.082500", "155034.692500", "155035.302500", "155035.912500", "155036.522500", "155037.132500", "155037.742500", "155038.352500", "155038.962500", "155039.572500", "155040.182500", "155040.792500", "155041.402500", "155042.012500", "155042.622500", "155043.232500", "155043.842500", "155044.452500", "155045.062500", "155045.672500", "155046.282500", "155046.892500", "155047.502500", "155048.112500", "155048.722500", "155049.332500", "155049.942500", "155050.552500", "155051.162500", "155051.772500", "155052.382500", "155052.992500", "155053.602500", "155054.212500", "155054.822500", "155055.432500", "155056.042500", "155056.652500", "155057.262500", "155057.872500", "155058.482500", "155059.092500", "155059.702500", "155100.312500", "155100.922500", "155101.532500", "155102.142500", "155102.752500", "155103.362500", "155103.972500", "155104.582500", "155105.192500", "155105.802500", "155106.412500", "155107.022500", "155107.632500", "155108.242500", "155108.852500", "155109.462500", "155110.072500", "155110.682500", "155111.292500", "155111.902500", "155112.512500", "155113.122500", "155113.732500", "155114.342500", "155114.952500", "155115.562500", "155116.172500", "155116.782500", "155117.392500", "155118.002500", "155118.612500", "155119.222500"], "ContentTime": ["154638.644000", "154638.647000", "154638.658000", "154638.661000", "154638.663000", "154638.665000", "154638.675000", "154638.677000", "154638.680000", "154638.682000", "154638.684000", "154638.687000", "154638.689000", "154638.691000", "154638.694000", "154638.696000", "154638.699000", "154638.702000", "154638.705000", "154638.707000", "154638.710000", "154638.712000", "154638.715000", "154638.717000", "154638.719000", "154638.722000", "154638.724000", "154638.727000", "154638.729000", "154638.731000", "154638.734000", "154638.736000", "154638.739000", "154638.741000", "154638.743000", "154638.746000", "154638.748000", "154638.750000", "154638.755000", "154638.758000", "154638.760000", "154638.762000", "154638.765000", "154638.767000", "154638.769000", "154638.772000", "154638.774000", "154658.639000", "154658.642000", "154658.644000", "154658.647000", "154658.649000", "154658.651000", "154658.654000", "154658.656000", "154658.659000", "154658.661000", "154658.663000", "154658.666000", "154658.668000", "154658.670000", "154658.673000", "154658.675000", "154658.678000", "154658.680000", "154658.682000", "154658.685000", "154658.687000", "154658.690000", "154658.692000", "154658.694000", "154658.697000", "154658.699000", "154658.701000", "154658.704000", "154658.706000", "154658.709000", "154658.711000", "154658.714000", "154658.726000", "154718.639000", "154718.642000", "154718.645000", "154718.647000", "154718.650000", "154718.653000", "154718.655000", "154718.657000", "154718.660000", "154718.662000", "154718.664000", "154718.667000", "154718.669000", "154718.672000", "154718.674000", "154718.676000", "154718.679000", "154718.681000", "154718.684000", "154718.686000", "154718.688000", "154718.691000", "154718.693000", "154718.695000", "154718.698000", "154718.700000", "154718.703000", "154718.705000", "154718.707000", "154718.710000", "154718.712000", "154718.715000", "154718.717000", "154738.639000", "154738.642000", "154738.644000", "154738.646000", "154738.649000", "154738.651000", "154738.653000", "154738.656000", "154738.658000", "154738.661000", "154738.663000", "154738.665000", "154738.668000", "154738.670000", "154738.672000", "154738.675000", "154738.677000", "154738.679000", "154738.682000", "154738.684000", "154738.687000", "154738.689000", "154738.691000", "154738.694000", "154738.696000", "154738.698000", "154738.701000", "154738.703000", "154738.705000", "154738.708000", "154738.710000", "154738.712000", "154758.639000", "154758.642000", "154758.644000", "154758.647000", "154758.649000", "154758.657000", "154758.659000", "154758.661000", "154758.664000", "154758.666000", "154758.669000", "154758.671000", "154758.674000", "154758.676000", "154758.678000", "154758.681000", "154758.683000", "154758.686000", "154758.688000", "154758.690000", "154758.693000", "154758.695000", "154758.697000", "154758.700000", "154758.702000", "154758.704000", "154758.707000", "154758.709000", "154758.712000", "154758.714000", "154758.716000", "154758.719000", "154758.721000", "154818.639000", "154818.642000", "154818.644000", "154818.646000", "154818.649000", "154818.651000", "154818.654000", "154818.656000", "154818.658000", "154818.661000", "154818.663000", "154818.665000", "154818.668000", "154818.670000", "154818.673000", "154818.675000", "154818.677000", "154818.680000", "154818.682000", "154818.685000", "154818.687000", "154818.689000", "154818.692000", "154818.694000", "154818.697000", "154818.699000", "154818.701000", "154818.704000", "154818.706000", "154818.708000", "154818.711000", "154818.713000", "154818.715000", "154838.639000", "154838.642000", "154838.644000", "154838.646000", "154838.649000", "154838.651000", "154838.654000", "154838.656000", "154838.658000", "154838.661000", "154838.663000", "154838.665000", "154838.668000", "154838.670000", "154838.673000", "154838.675000", "154838.677000", "154838.680000", "154838.682000", "154838.684000", "154838.687000", "154838.689000", "154838.692000", "154838.694000", "154838.706000", "154838.708000", "154838.711000", "154838.713000", "154838.715000", "154838.718000", "154838.720000", "154838.722000", "154838.725000", "154858.639000", "154858.642000", "154858.644000", "154858.647000", "154858.649000", "154858.652000", "154858.654000", "154858.656000", "154858.659000", "154858.661000", "154858.664000", "154858.666000", "154858.668000", "154858.671000", "154858.673000", "154858.676000", "154858.678000", "154858.681000", "154858.683000", "154858.685000", "154858.688000", "154858.690000", "154858.693000", "154858.695000", "154858.698000", "154858.700000", "154858.702000", "154858.705000", "154858.707000", "154858.709000", "154858.712000", "154858.714000", "154858.717000", "154918.639000", "154918.642000", "154918.644000", "154918.647000", "154918.649000", "154918.652000", "154918.654000", "154918.657000", "154918.660000", "154918.662000", "154918.665000", "154918.667000", "154918.669000", "154918.672000", "154918.675000", "154918.677000", "154918.679000", "154918.682000", "154918.684000", "154918.687000", "154918.690000", "154918.692000", "154918.695000", "154918.697000", "154918.700000", "154918.702000", "154918.704000", "154918.707000", "154918.709000", "154918.712000", "154918.714000", "154918.717000", "154938.639000", "154938.642000", "154938.644000", "154938.647000", "154938.650000", "154938.652000", "154938.655000", "154938.657000", "154938.659000", "154938.662000", "154938.664000", "154938.667000", "154938.669000", "154938.672000", "154938.674000", "154938.676000", "154938.679000", "154938.681000", "154938.684000", "154938.686000", "154938.689000", "154938.691000", "154938.693000", "154938.696000", "154938.698000", "154938.701000", "154938.703000", "154938.706000", "154938.708000", "154938.711000", "154938.713000", "154938.716000", "154938.718000", "154958.639000", "154958.642000", "154958.644000", "154958.647000", "154958.649000", "154958.652000", "154958.654000", "154958.656000", "154958.659000", "154958.662000", "154958.665000", "154958.671000", "154958.673000", "154958.676000", "154958.678000", "154958.681000", "154958.683000", "154958.685000", "154958.688000", "154958.690000", "154958.692000", "154958.695000", "154958.697000", "154958.700000", "154958.702000", "154958.704000", "154958.707000", "154958.709000", "154958.711000", "154958.714000", "154958.716000", "154958.719000", "154958.721000", "155018.639000", "155018.642000", "155018.644000", "155018.647000", "155018.649000", "155018.651000", "155018.654000", "155018.656000", "155018.658000", "155018.661000", "155018.663000", "155018.666000", "155018.668000", "155018.671000", "155018.673000", "155018.675000", "155018.678000", "155018.680000", "155018.683000", "155018.685000", "155018.687000", "155018.690000", "155018.692000", "155018.695000", "155018.697000", "155018.699000", "155018.702000", "155018.704000", "155018.707000", "155018.709000", "155018.711000", "155018.714000", "155018.716000", "155038.639000", "155038.642000", "155038.644000", "155038.647000", "155038.649000", "155038.651000", "155038.654000", "155038.656000", "155038.658000", "155038.661000", "155038.663000", "155038.666000", "155038.668000", "155038.670000", "155038.673000", "155038.675000", "155038.677000", "155038.680000", "155038.682000", "155038.684000", "155038.687000", "155038.689000", "155038.692000", "155038.694000", "155038.697000", "155038.699000", "155038.701000", "155038.704000", "155038.706000", "155038.709000", "155038.711000", "155038.713000", "155038.716000", "155058.639000", "155058.642000", "155058.644000", "155058.647000", "155058.649000", "155058.651000", "155058.654000", "155058.656000", "155058.658000", "155058.661000", "155058.663000", "155058.666000", "155058.668000", "155058.670000", "155058.673000", "155058.675000", "155058.677000", "155058.680000", "155058.682000", "155058.685000", "155058.687000", "155058.690000", "155058.692000", "155058.694000", "155058.697000", "155058.699000", "155058.702000", "155058.704000", "155058.706000", "155058.709000", "155058.711000", "155058.714000", "155118.639000", "155118.642000", "155118.644000", "155118.647000", "155118.649000", "155118.651000", "155118.654000", "155118.656000", "155118.659000", "155118.661000", "155118.663000", "155118.666000", "155118.668000", "155118.671000", "155118.673000", "155118.676000", "155118.678000", "155118.680000", "155118.693000", "155118.696000", "155118.698000", "155118.700000", "155118.703000", "155118.705000", "155118.708000", "155118.710000", "155118.712000", "155118.715000", "155118.717000", "155118.719000", "155118.722000", "155118.724000", "155118.727000", "155120.652000", "155120.655000", "155120.657000", "155120.659000"], "InstanceCreationTime": ["154638.644000", "154638.647000", "154638.658000", "154638.661000", "154638.663000", "154638.665000", "154638.675000", "154638.677000", "154638.680000", "154638.682000", "154638.684000", "154638.687000", "154638.689000", "154638.691000", "154638.694000", "154638.696000", "154638.699000", "154638.702000", "154638.705000", "154638.707000", "154638.710000", "154638.712000", "154638.715000", "154638.717000", "154638.719000", "154638.722000", "154638.724000", "154638.727000", "154638.729000", "154638.731000", "154638.734000", "154638.736000", "154638.739000", "154638.741000", "154638.743000", "154638.746000", "154638.748000", "154638.750000", "154638.755000", "154638.758000", "154638.760000", "154638.762000", "154638.765000", "154638.767000", "154638.769000", "154638.772000", "154638.774000", "154658.639000", "154658.642000", "154658.644000", "154658.647000", "154658.649000", "154658.651000", "154658.654000", "154658.656000", "154658.659000", "154658.661000", "154658.663000", "154658.666000", "154658.668000", "154658.670000", "154658.673000", "154658.675000", "154658.678000", "154658.680000", "154658.682000", "154658.685000", "154658.687000", "154658.690000", "154658.692000", "154658.694000", "154658.697000", "154658.699000", "154658.701000", "154658.704000", "154658.706000", "154658.709000", "154658.711000", "154658.714000", "154658.726000", "154718.639000", "154718.642000", "154718.645000", "154718.647000", "154718.650000", "154718.653000", "154718.655000", "154718.657000", "154718.660000", "154718.662000", "154718.664000", "154718.667000", "154718.669000", "154718.672000", "154718.674000", "154718.676000", "154718.679000", "154718.681000", "154718.684000", "154718.686000", "154718.688000", "154718.691000", "154718.693000", "154718.695000", "154718.698000", "154718.700000", "154718.703000", "154718.705000", "154718.707000", "154718.710000", "154718.712000", "154718.715000", "154718.717000", "154738.639000", "154738.642000", "154738.644000", "154738.646000", "154738.649000", "154738.651000", "154738.653000", "154738.656000", "154738.658000", "154738.661000", "154738.663000", "154738.665000", "154738.668000", "154738.670000", "154738.672000", "154738.675000", "154738.677000", "154738.679000", "154738.682000", "154738.684000", "154738.687000", "154738.689000", "154738.691000", "154738.694000", "154738.696000", "154738.698000", "154738.701000", "154738.703000", "154738.705000", "154738.708000", "154738.710000", "154738.712000", "154758.639000", "154758.642000", "154758.644000", "154758.647000", "154758.649000", "154758.657000", "154758.659000", "154758.661000", "154758.664000", "154758.666000", "154758.669000", "154758.671000", "154758.674000", "154758.676000", "154758.678000", "154758.681000", "154758.683000", "154758.686000", "154758.688000", "154758.690000", "154758.693000", "154758.695000", "154758.697000", "154758.700000", "154758.702000", "154758.704000", "154758.707000", "154758.709000", "154758.712000", "154758.714000", "154758.716000", "154758.719000", "154758.721000", "154818.639000", "154818.642000", "154818.644000", "154818.646000", "154818.649000", "154818.651000", "154818.654000", "154818.656000", "154818.658000", "154818.661000", "154818.663000", "154818.665000", "154818.668000", "154818.670000", "154818.673000", "154818.675000", "154818.677000", "154818.680000", "154818.682000", "154818.685000", "154818.687000", "154818.689000", "154818.692000", "154818.694000", "154818.697000", "154818.699000", "154818.701000", "154818.704000", "154818.706000", "154818.708000", "154818.711000", "154818.713000", "154818.715000", "154838.639000", "154838.642000", "154838.644000", "154838.646000", "154838.649000", "154838.651000", "154838.654000", "154838.656000", "154838.658000", "154838.661000", "154838.663000", "154838.665000", "154838.668000", "154838.670000", "154838.673000", "154838.675000", "154838.677000", "154838.680000", "154838.682000", "154838.684000", "154838.687000", "154838.689000", "154838.692000", "154838.694000", "154838.706000", "154838.708000", "154838.711000", "154838.713000", "154838.715000", "154838.718000", "154838.720000", "154838.722000", "154838.725000", "154858.639000", "154858.642000", "154858.644000", "154858.647000", "154858.649000", "154858.652000", "154858.654000", "154858.656000", "154858.659000", "154858.661000", "154858.664000", "154858.666000", "154858.668000", "154858.671000", "154858.673000", "154858.676000", "154858.678000", "154858.681000", "154858.683000", "154858.685000", "154858.688000", "154858.690000", "154858.693000", "154858.695000", "154858.698000", "154858.700000", "154858.702000", "154858.705000", "154858.707000", "154858.709000", "154858.712000", "154858.714000", "154858.717000", "154918.639000", "154918.642000", "154918.644000", "154918.647000", "154918.649000", "154918.652000", "154918.654000", "154918.657000", "154918.660000", "154918.662000", "154918.665000", "154918.667000", "154918.669000", "154918.672000", "154918.675000", "154918.677000", "154918.679000", "154918.682000", "154918.684000", "154918.687000", "154918.690000", "154918.692000", "154918.695000", "154918.697000", "154918.700000", "154918.702000", "154918.704000", "154918.707000", "154918.709000", "154918.712000", "154918.714000", "154918.717000", "154938.639000", "154938.642000", "154938.644000", "154938.647000", "154938.650000", "154938.652000", "154938.655000", "154938.657000", "154938.659000", "154938.662000", "154938.664