{
    "AcquisitionMatrixPE": 64,
    "AcquisitionNumber": 1,
    "AcquisitionTime": "12:18:40.700000",
    "BandwidthPerPixelPhaseEncode": 28.935,
    "BaseResolution": 64,
    "BodyPartExamined": "BRAIN",
    "CoilString": "HC2_4_6_7",
    "ConsistencyInfo": "N4_VE11E_LATEST_20181129",
    "ConversionSoftware": "dcm2niix",
    "ConversionSoftwareVersion": "v1.0.20190902",
    "DerivedVendorReportedEchoSpacing": 0.000540003,
    "DeviceSerialNumber": "166182",
    "DwellTime": 3.4e-06,
    "EchoTime": 0.032,
    "EchoTrainLength": 64,
    "EffectiveEchoSpacing": 0.000540003,
    "FlipAngle": 40,
    "ImageOrientationPatientDICOM": [
        0.998403,
        0.0240323,
        -0.0511342,
        -0.0261441,
        0.998815,
        -0.0410389
    ],
    "ImageType": [
        "ORIGINAL",
        "PRIMARY",
        "M",
        "ND",
        "NORM",
        "MOSAIC"
    ],
    "ImagingFrequency": 123.256,
    "InPlanePhaseEncodingDirectionDICOM": "COL",
    "InstitutionAddress": "PEARSE_STREET_._City_District_IE_D2",
    "InstitutionName": "TCIN",
    "InstitutionalDepartmentName": "MRI",
    "MRAcquisitionType": "2D",
    "MagneticFieldStrength": 3,
    "Manufacturer": "Siemens",
    "ManufacturersModelName": "Prisma",
    "Modality": "MR",
    "MultibandAccelerationFactor": 4,
    "PartialFourier": 1,
    "PatientPosition": "HFS",
    "PercentPhaseFOV": 100,
    "PhaseEncodingDirection": "j-",
    "PhaseEncodingSteps": 64,
    "PhaseResolution": 1,
    "PixelBandwidth": 2300,
    "ProcedureStepDescription": "Rhodri_Head_BOLD",
    "ProtocolName": "cmrr_mbep2d_Pictures_AP_RDS",
    "PulseSequenceDetails": "%SiemensSeq%_ep2d_bold",
    "ReceiveCoilActiveElements": "HC2,4,6,7",
    "ReceiveCoilName": "HeadNeck_64",
    "ReconMatrixPE": 64,
    "RefLinesPE": 12,
    "RepetitionTime": 0.61,
    "SAR": 0.214353,
    "ScanOptions": "FS",
    "ScanningSequence": "EP",
    "SequenceName": "_epfid2d1_64",
    "SequenceVariant": "SK",
    "SeriesDescription": "cmrr_mbep2d_Pictures_AP_RDS",
    "SeriesNumber": 8,
    "ShimSetting": [
        -3645,
        -7434,
        3870,
        804,
        -7,
        217,
        97,
        11
    ],
    "SliceThickness": 3,
    "SliceTiming": [
        0.2625,
        0,
        0.3275,
        0.065,
        0.3925,
        0.1325,
        0.46,
        0.1975,
        0.525,
        0.2625,
        0,
        0.3275,
        0.065,
        0.3925,
        0.1325,
        0.46,
        0.1975,
        0.525,
        0.2625,
        0,
        0.3275,
        0.065,
        0.3925,
        0.1325,
        0.46,
        0.1975,
        0.525,
        0.2625,
        0,
        0.3275,
        0.065,
        0.3925,
        0.1325,
        0.46,
        0.1975,
        0.525
    ],
    "SoftwareVersions": "syngo_MR_E11",
    "SpacingBetweenSlices": 3.3,
    "StationName": "AWP166182",
    "TaskName": "pictures",
    "TotalReadoutTime": 0.0340202,
    "TxRefAmp": 253.71,
    "dcmmeta_affine": [
        [
            -2.9952077865600586,
            -0.07843223959207535,
            -0.16528815031051636,
            98.75926208496094
        ],
        [
            -0.07209688425064087,
            2.996446371078491,
            -0.13962358236312866,
            -94.65170288085938
        ],
        [
            -0.1534024477005005,
            0.1231166273355484,
            3.2928991317749023,
            -89.01083374023438
        ],
        [
            0.0,
            0.0,
            0.0,
            1.0
        ]
    ],
    "dcmmeta_reorient_transform": [
        [
            0.0,
            -1.0,
            0.0,
            63.0
        ],
        [
            1.0,
            0.0,
            0.0,
            0.0
        ],
        [
            0.0,
            0.0,
            1.0,
            0.0
        ],
        [
            0.0,
            0.0,
            0.0,
            1.0
        ]
    ],
    "dcmmeta_shape": [
        64,
        64,
        36,
        510
    ],
    "dcmmeta_slice_dim": 2,
    "dcmmeta_version": 0.6,
    "global": {
        "const": {
            "AcquisitionMatrix": [
                64,
                0,
                0,
                64
            ],
            "AngioFlag": "N",
            "BitsAllocated": 16,
            "BitsStored": 12,
            "BodyPartExamined": "BRAIN",
            "Columns": 384,
            "EchoNumbers": 1,
            "EchoTime": 32.0,
            "EchoTrainLength": 64,
            "FlipAngle": 40.0,
            "HighBit": 11,
            "ImageOrientationPatient": [
                0.99840259792124,
                0.02403229574965,
                -0.0511341493047,
                -0.026144078779,
                0.9988154473745,
                -0.0410388746297
            ],
            "ImagePositionPatient": [
                -560.50212134061,
                -585.09133412765,
                -37.011434222086
            ],
            "ImageType": [
                "ORIGINAL",
                "PRIMARY",
                "M",
                "ND",
                "NORM",
                "MOSAIC"
            ],
            "ImagedNucleus": "1H",
            "ImagingFrequency": 123.255673,
            "InPlanePhaseEncodingDirection": "COL",
            "MRAcquisitionType": "2D",
            "MagneticFieldStrength": 3.0,
            "Manufacturer": "SIEMENS",
            "ManufacturerModelName": "Prisma",
            "Modality": "MR",
            "NumberOfAverages": 1.0,
            "NumberOfPhaseEncodingSteps": 64,
            "PercentPhaseFieldOfView": 100.0,
            "PercentSampling": 100.0,
            "PerformedProcedureStepStartTime": "120229.758000",
            "PhotometricInterpretation": "MONOCHROME2",
            "PixelBandwidth": 2300.0,
            "PixelRepresentation": 0,
            "PixelSpacing": [
                3.0,
                3.0
            ],
            "ProtocolName": "cmrr_mbep2d_Pictures_AP_RDS",
            "RepetitionTime": 610.0,
            "Rows": 384,
            "SAR": 0.21435344277097,
            "SamplesPerPixel": 1,
            "ScanOptions": "FS",
            "ScanningSequence": "EP",
            "SequenceName": "*epfid2d1_64",
            "SequenceVariant": "SK",
            "SeriesDescription": "cmrr_mbep2d_Pictures_AP_RDS",
            "SeriesNumber": 8,
            "SeriesTime": "121857.292000",
            "SliceLocation": -89.761159825084,
            "SliceThickness": 3.0,
            "SmallestImagePixelValue": 0,
            "SoftwareVersions": "syngo MR E11",
            "SpacingBetweenSlices": 3.3000000229049,
            "SpecificCharacterSet": "ISO_IR 100",
            "StudyID": "1",
            "StudyTime": "120229.491000",
            "TransmitCoilName": "Body",
            "VariableFlipAngleFlag": "N",
            "WindowCenterWidthExplanation": "Algo1"
        },
        "slices": {}
    },
    "time": {
        "samples": {
            "AcquisitionNumber": [
                1,
                2,
                3,
                4,
                5,
                6,
                7,
                8,
                9,
                10,
                11,
                12,
                13,
                14,
                15,
                16,
                17,
                18,
                19,
                20,
                21,
                22,
                23,
                24,
                25,
                26,
                27,
                28,
                29,
                30,
                31,
                32,
                33,
                34,
                35,
                36,
                37,
                38,
                39,
                40,
                41,
                42,
                43,
                44,
                45,
                46,
                47,
                48,
                49,
                50,
                51,
                52,
                53,
                54,
                55,
                56,
                57,
                58,
                59,
                60,
                61,
                62,
                63,
                64,
                65,
                66,
                67,
                68,
                69,
                70,
                71,
                72,
                73,
                74,
                75,
                76,
                77,
                78,
                79,
                80,
                81,
                82,
                83,
                84,
                85,
                86,
                87,
                88,
                89,
                90,
                91,
                92,
                93,
                94,
                95,
                96,
                97,
                98,
                99,
                100,
                101,
                102,
                103,
                104,
                105,
                106,
                107,
                108,
                109,
                110,
                111,
                112,
                113,
                114,
                115,
                116,
                117,
                118,
                119,
                120,
                121,
                122,
                123,
                124,
                125,
                126,
                127,
                128,
                129,
                130,
                131,
                132,
                133,
                134,
                135,
                136,
                137,
                138,
                139,
                140,
                141,
                142,
                143,
                144,
                145,
                146,
                147,
                148,
                149,
                150,
                151,
                152,
                153,
                154,
                155,
                156,
                157,
                158,
                159,
                160,
                161,
                162,
                163,
                164,
                165,
                166,
                167,
                168,
                169,
                170,
                171,
                172,
                173,
                174,
                175,
                176,
                177,
                178,
                179,
                180,
                181,
                182,
                183,
                184,
                185,
                186,
                187,
                188,
                189,
                190,
                191,
                192,
                193,
                194,
                195,
                196,
                197,
                198,
                199,
                200,
                201,
                202,
                203,
                204,
                205,
                206,
                207,
                208,
                209,
                210,
                211,
                212,
                213,
                214,
                215,
                216,
                217,
                218,
                219,
                220,
                221,
                222,
                223,
                224,
                225,
                226,
                227,
                228,
                229,
                230,
                231,
                232,
                233,
                234,
                235,
                236,
                237,
                238,
                239,
                240,
                241,
                242,
                243,
                244,
                245,
                246,
                247,
                248,
                249,
                250,
                251,
                252,
                253,
                254,
                255,
                256,
                257,
                258,
                259,
                260,
                261,
                262,
                263,
                264,
                265,
                266,
                267,
                268,
                269,
                270,
                271,
                272,
                273,
                274,
                275,
                276,
                277,
                278,
                279,
                280,
                281,
                282,
                283,
                284,
                285,
                286,
                287,
                288,
                289,
                290,
                291,
                292,
                293,
                294,
                295,
                296,
                297,
                298,
                299,
                300,
                301,
                302,
                303,
                304,
                305,
                306,
                307,
                308,
                309,
                310,
                311,
                312,
                313,
                314,
                315,
                316,
                317,
                318,
                319,
                320,
                321,
                322,
                323,
                324,
                325,
                326,
                327,
                328,
                329,
                330,
                331,
                332,
                333,
                334,
                335,
                336,
                337,
                338,
                339,
                340,
                341,
                342,
                343,
                344,
                345,
                346,
                347,
                348,
                349,
                350,
                351,
                352,
                353,
                354,
                355,
                356,
                357,
                358,
                359,
                360,
                361,
                362,
                363,
                364,
                365,
                366,
                367,
                368,
                369,
                370,
                371,
                372,
                373,
                374,
                375,
                376,
                377,
                378,
                379,
                380,
                381,
                382,
                383,
                384,
                385,
                386,
                387,
                388,
                389,
                390,
                391,
                392,
                393,
                394,
                395,
                396,
                397,
                398,
                399,
                400,
                401,
                402,
                403,
                404,
                405,
                406,
                407,
                408,
                409,
                410,
                411,
                412,
                413,
                414,
                415,
                416,
                417,
                418,
                419,
                420,
                421,
                422,
                423,
                424,
                425,
                426,
                427,
                428,
                429,
                430,
                431,
                432,
                433,
                434,
                435,
                436,
                437,
                438,
                439,
                440,
                441,
                442,
                443,
                444,
                445,
                446,
                447,
                448,
                449,
                450,
                451,
                452,
                453,
                454,
                455,
                456,
                457,
                458,
                459,
                460,
                461,
                462,
                463,
                464,
                465,
                466,
                467,
                468,
                469,
                470,
                471,
                472,
                473,
                474,
                475,
                476,
                477,
                478,
                479,
                480,
                481,
                482,
                483,
                484,
                485,
                486,
                487,
                488,
                489,
                490,
                491,
                492,
                493,
                494,
                495,
                496,
                497,
                498,
                499,
                500,
                501,
                502,
                503,
                504,
                505,
                506,
                507,
                508,
                509,
                510
            ],
            "AcquisitionTime": [
                "121840.700000",
                "121841.310000",
                "121841.920000",
                "121842.530000",
                "121843.140000",
                "121843.750000",
                "121844.360000",
                "121844.970000",
                "121845.580000",
                "121846.190000",
                "121846.800000",
                "121847.410000",
                "121848.020000",
                "121848.630000",
                "121849.240000",
                "121849.850000",
                "121850.460000",
                "121851.070000",
                "121851.680000",
                "121852.290000",
                "121852.900000",
                "121853.510000",
                "121854.120000",
                "121854.730000",
                "121855.340000",
                "121855.950000",
                "121856.560000",
                "121857.170000",
                "121857.780000",
                "121858.390000",
                "121859.000000",
                "121859.610000",
                "121900.220000",
                "121900.830000",
                "121901.440000",
                "121902.050000",
                "121902.660000",
                "121903.270000",
                "121903.880000",
                "121904.490000",
                "121905.100000",
                "121905.710000",
                "121906.320000",
                "121906.930000",
                "121907.540000",
                "121908.150000",
                "121908.760000",
                "121909.370000",
                "121909.980000",
                "121910.590000",
                "121911.200000",
                "121911.810000",
                "121912.420000",
                "121913.030000",
                "121913.640000",
                "121914.250000",
                "121914.860000",
                "121915.470000",
                "121916.080000",
                "121916.690000",
                "121917.300000",
                "121917.910000",
                "121918.520000",
                "121919.130000",
                "121919.740000",
                "121920.350000",
                "121920.960000",
                "121921.570000",
                "121922.180000",
                "121922.790000",
                "121923.400000",
                "121924.010000",
                "121924.620000",
                "121925.230000",
                "121925.840000",
                "121926.450000",
                "121927.060000",
                "121927.670000",
                "121928.280000",
                "121928.890000",
                "121929.500000",
                "121930.110000",
                "121930.720000",
                "121931.330000",
                "121931.940000",
                "121932.550000",
                "121933.160000",
                "121933.770000",
                "121934.380000",
                "121934.990000",
                "121935.600000",
                "121936.210000",
                "121936.820000",
                "121937.430000",
                "121938.040000",
                "121938.650000",
                "121939.260000",
                "121939.870000",
                "121940.480000",
                "121941.090000",
                "121941.700000",
                "121942.310000",
                "121942.920000",
                "121943.530000",
                "121944.140000",
                "121944.750000",
                "121945.360000",
                "121945.970000",
                "121946.580000",
                "121947.190000",
                "121947.800000",
                "121948.410000",
                "121949.020000",
                "121949.630000",
                "121950.240000",
                "121950.850000",
                "121951.460000",
                "121952.070000",
                "121952.680000",
                "121953.290000",
                "121953.900000",
                "121954.510000",
                "121955.120000",
                "121955.730000",
                "121956.340000",
                "121956.950000",
                "121957.560000",
                "121958.170000",
                "121958.780000",
                "121959.390000",
                "122000.000000",
                "122000.610000",
                "122001.220000",
                "122001.830000",
                "122002.440000",
                "122003.050000",
                "122003.660000",
                "122004.270000",
                "122004.880000",
                "122005.490000",
                "122006.100000",
                "122006.710000",
                "122007.320000",
                "122007.930000",
                "122008.540000",
                "122009.150000",
                "122009.760000",
                "122010.370000",
                "122010.980000",
                "122011.590000",
                "122012.200000",
                "122012.810000",
                "122013.420000",
                "122014.030000",
                "122014.640000",
                "122015.250000",
                "122015.860000",
                "122016.470000",
                "122017.080000",
                "122017.690000",
                "122018.300000",
                "122018.910000",
                "122019.520000",
                "122020.130000",
                "122020.740000",
                "122021.350000",
                "122021.960000",
                "122022.570000",
                "122023.180000",
                "122023.790000",
                "122024.400000",
                "122025.010000",
                "122025.620000",
                "122026.230000",
                "122026.840000",
                "122027.450000",
                "122028.060000",
                "122028.670000",
                "122029.280000",
                "122029.890000",
                "122030.500000",
                "122031.110000",
                "122031.720000",
                "122032.330000",
                "122032.940000",
                "122033.550000",
                "122034.160000",
                "122034.770000",
                "122035.380000",
                "122035.990000",
                "122036.600000",
                "122037.210000",
                "122037.820000",
                "122038.430000",
                "122039.040000",
                "122039.650000",
                "122040.260000",
                "122040.870000",
                "122041.480000",
                "122042.090000",
                "122042.700000",
                "122043.310000",
                "122043.920000",
                "122044.530000",
                "122045.140000",
                "122045.750000",
                "122046.360000",
                "122046.970000",
                "122047.580000",
                "122048.190000",
                "122048.800000",
                "122049.410000",
                "122050.020000",
                "122050.630000",
                "122051.240000",
                "122051.850000",
                "122052.460000",
                "122053.070000",
                "122053.680000",
                "122054.290000",
                "122054.900000",
                "122055.510000",
                "122056.120000",
                "122056.730000",
                "122057.340000",
                "122057.950000",
                "122058.560000",
                "122059.170000",
                "122059.780000",
                "122100.390000",
                "122101.000000",
                "122101.610000",
                "122102.220000",
                "122102.830000",
                "122103.440000",
                "122104.050000",
                "122104.660000",
                "122105.270000",
                "122105.880000",
                "122106.490000",
                "122107.100000",
                "122107.710000",
                "122108.320000",
                "122108.930000",
                "122109.540000",
                "122110.150000",
                "122110.760000",
                "122111.370000",
                "122111.980000",
                "122112.590000",
                "122113.200000",
                "122113.810000",
                "122114.420000",
                "122115.030000",
                "122115.640000",
                "122116.250000",
                "122116.860000",
                "122117.470000",
                "122118.080000",
                "122118.690000",
                "122119.300000",
                "122119.910000",
                "122120.520000",
                "122121.130000",
                "122121.740000",
                "122122.350000",
                "122122.960000",
                "122123.570000",
                "122124.180000",
                "122124.790000",
                "122125.400000",
                "122126.010000",
                "122126.620000",
                "122127.230000",
                "122127.840000",
                "122128.450000",
                "122129.060000",
                "122129.670000",
                "122130.280000",
                "122130.890000",
                "122131.500000",
                "122132.110000",
                "122132.720000",
                "122133.330000",
                "122133.940000",
                "122134.550000",
                "122135.160000",
                "122135.770000",
                "122136.380000",
                "122136.990000",
                "122137.600000",
                "122138.210000",
                "122138.820000",
                "122139.430000",
                "122140.040000",
                "122140.650000",
                "122141.260000",
                "122141.870000",
                "122142.480000",
                "122143.090000",
                "122143.700000",
                "122144.310000",
                "122144.920000",
                "122145.530000",
                "122146.140000",
                "122146.750000",
                "122147.360000",
                "122147.970000",
                "122148.580000",
                "122149.190000",
                "122149.800000",
                "122150.410000",
                "122151.020000",
                "122151.630000",
                "122152.240000",
                "122152.850000",
                "122153.460000",
                "122154.070000",
                "122154.680000",
                "122155.290000",
                "122155.900000",
                "122156.510000",
                "122157.120000",
                "122157.730000",
                "122158.340000",
                "122158.950000",
                "122159.560000",
                "122200.170000",
                "122200.780000",
                "122201.390000",
                "122202.000000",
                "122202.610000",
                "122203.220000",
                "122203.830000",
                "122204.440000",
                "122205.050000",
                "122205.660000",
                "122206.270000",
                "122206.880000",
                "122207.490000",
                "122208.100000",
                "122208.710000",
                "122209.320000",
                "122209.930000",
                "122210.540000",
                "122211.150000",
                "122211.760000",
                "122212.370000",
                "122212.980000",
                "122213.590000",
                "122214.200000",
                "122214.810000",
                "122215.420000",
                "122216.030000",
                "122216.640000",
                "122217.250000",
                "122217.860000",
                "122218.470000",
                "122219.080000",
                "122219.690000",
                "122220.300000",
                "122220.910000",
                "122221.520000",
                "122222.130000",
                "122222.740000",
                "122223.350000",
                "122223.960000",
                "122224.570000",
                "122225.180000",
                "122225.790000",
                "122226.400000",
                "122227.010000",
                "122227.620000",
                "122228.230000",
