{
    "AcquisitionMatrixPE": 64,
    "AcquisitionNumber": 1,
    "AcquisitionTime": "12:51:28.717500",
    "BandwidthPerPixelPhaseEncode": 28.935,
    "BaseResolution": 64,
    "BodyPartExamined": "BRAIN",
    "CoilString": "HC2_4_6_7;SC",
    "ConsistencyInfo": "N4_VE11E_LATEST_20181129",
    "ConversionSoftware": "dcm2niix",
    "ConversionSoftwareVersion": "v1.0.20190902",
    "DerivedVendorReportedEchoSpacing": 0.000540003,
    "DeviceSerialNumber": "166182",
    "DwellTime": 3.4e-06,
    "EchoTime": 0.032,
    "EchoTrainLength": 64,
    "EffectiveEchoSpacing": 0.000540003,
    "FlipAngle": 40,
    "ImageOrientationPatientDICOM": [
        0.999684,
        0.00726672,
        -0.0240784,
        -0.00889863,
        0.99762,
        -0.0683761
    ],
    "ImageType": [
        "ORIGINAL",
        "PRIMARY",
        "M",
        "ND",
        "NORM",
        "MOSAIC"
    ],
    "ImagingFrequency": 123.256,
    "InPlanePhaseEncodingDirectionDICOM": "COL",
    "InstitutionAddress": "PEARSE_STREET_._City_District_IE_D2",
    "InstitutionName": "TCIN",
    "InstitutionalDepartmentName": "MRI",
    "MRAcquisitionType": "2D",
    "MagneticFieldStrength": 3,
    "Manufacturer": "Siemens",
    "ManufacturersModelName": "Prisma",
    "Modality": "MR",
    "MultibandAccelerationFactor": 4,
    "PartialFourier": 1,
    "PatientPosition": "HFS",
    "PercentPhaseFOV": 100,
    "PhaseEncodingDirection": "j-",
    "PhaseEncodingSteps": 64,
    "PhaseResolution": 1,
    "PixelBandwidth": 2300,
    "ProcedureStepDescription": "Rhodri_Head_BOLD",
    "ProtocolName": "cmrr_mbep2d_Pictures_AP_RDS",
    "PulseSequenceDetails": "%SiemensSeq%_ep2d_bold",
    "ReceiveCoilActiveElements": "HC2,4,6,7;SC",
    "ReceiveCoilName": "SpecialPurpose_4",
    "ReconMatrixPE": 64,
    "RefLinesPE": 12,
    "RepetitionTime": 0.61,
    "SAR": 0.353773,
    "ScanOptions": "FS",
    "ScanningSequence": "EP",
    "SequenceName": "_epfid2d1_64",
    "SequenceVariant": "SK",
    "SeriesDescription": "cmrr_mbep2d_Pictures_AP_RDS",
    "SeriesNumber": 9,
    "ShimSetting": [
        -3584,
        -7477,
        3943,
        1187,
        -147,
        248,
        -105,
        -48
    ],
    "SliceThickness": 3,
    "SliceTiming": [
        0.2625,
        0,
        0.3275,
        0.065,
        0.3925,
        0.13,
        0.46,
        0.1975,
        0.525,
        0.2625,
        0,
        0.3275,
        0.065,
        0.3925,
        0.13,
        0.46,
        0.1975,
        0.525,
        0.2625,
        0,
        0.3275,
        0.065,
        0.3925,
        0.13,
        0.46,
        0.1975,
        0.525,
        0.2625,
        0,
        0.3275,
        0.065,
        0.3925,
        0.13,
        0.46,
        0.1975,
        0.525
    ],
    "SoftwareVersions": "syngo_MR_E11",
    "SpacingBetweenSlices": 3.3,
    "StationName": "AWP166182",
    "TaskName": "pictures",
    "TotalReadoutTime": 0.0340202,
    "TxRefAmp": 236.418,
    "dcmmeta_affine": [
        [
            -2.999051094055176,
            -0.026695886626839638,
            -0.07762980461120605,
            99.70465087890625
        ],
        [
            -0.021800173446536064,
            2.9928598403930664,
            -0.22627678513526917,
            -100.44371795654297
        ],
        [
            -0.07223508507013321,
            0.2051282674074173,
            3.2913177013397217,
            -83.62213897705078
        ],
        [
            0.0,
            0.0,
            0.0,
            1.0
        ]
    ],
    "dcmmeta_reorient_transform": [
        [
            0.0,
            -1.0,
            0.0,
            63.0
        ],
        [
            1.0,
            0.0,
            0.0,
            0.0
        ],
        [
            0.0,
            0.0,
            1.0,
            0.0
        ],
        [
            0.0,
            0.0,
            0.0,
            1.0
        ]
    ],
    "dcmmeta_shape": [
        64,
        64,
        36,
        510
    ],
    "dcmmeta_slice_dim": 2,
    "dcmmeta_version": 0.6,
    "global": {
        "const": {
            "AcquisitionMatrix": [
                64,
                0,
                0,
                64
            ],
            "AngioFlag": "N",
            "BitsAllocated": 16,
            "BitsStored": 12,
            "BodyPartExamined": "BRAIN",
            "Columns": 384,
            "EchoNumbers": 1,
            "EchoTime": 32.0,
            "EchoTrainLength": 64,
            "FlipAngle": 40.0,
            "HighBit": 11,
            "ImageOrientationPatient": [
                0.99968366354257,
                0.00726672472801,
                -0.0240783628563,
                -0.0088986286749,
                0.99761993001272,
                -0.0683760897473
            ],
            "ImagePositionPatient": [
                -573.59962432245,
                -570.45204127855,
                -26.320919443403
            ],
            "ImageType": [
                "ORIGINAL",
                "PRIMARY",
                "M",
                "ND",
                "NORM",
                "MOSAIC"
            ],
            "ImagedNucleus": "1H",
            "ImagingFrequency": 123.255654,
            "InPlanePhaseEncodingDirection": "COL",
            "MRAcquisitionType": "2D",
            "MagneticFieldStrength": 3.0,
            "Manufacturer": "SIEMENS",
            "ManufacturerModelName": "Prisma",
            "Modality": "MR",
            "NumberOfAverages": 1.0,
            "NumberOfPhaseEncodingSteps": 64,
            "PercentPhaseFieldOfView": 100.0,
            "PercentSampling": 100.0,
            "PerformedProcedureStepStartTime": "123127.460000",
            "PhotometricInterpretation": "MONOCHROME2",
            "PixelBandwidth": 2300.0,
            "PixelRepresentation": 0,
            "PixelSpacing": [
                3.0,
                3.0
            ],
            "ProtocolName": "cmrr_mbep2d_Pictures_AP_RDS",
            "RepetitionTime": 610.0,
            "Rows": 384,
            "SAR": 0.35377266961274,
            "SamplesPerPixel": 1,
            "ScanOptions": "FS",
            "ScanningSequence": "EP",
            "SequenceName": "*epfid2d1_64",
            "SequenceVariant": "SK",
            "SeriesDescription": "cmrr_mbep2d_Pictures_AP_RDS",
            "SeriesNumber": 9,
            "SeriesTime": "125154.019000",
            "SliceLocation": -78.860301485979,
            "SliceThickness": 3.0,
            "SmallestImagePixelValue": 0,
            "SoftwareVersions": "syngo MR E11",
            "SpacingBetweenSlices": 3.2999999072831,
            "SpecificCharacterSet": "ISO_IR 100",
            "StudyID": "1",
            "StudyTime": "123127.363000",
            "TransmitCoilName": "Body",
            "VariableFlipAngleFlag": "N",
            "WindowCenterWidthExplanation": "Algo1"
        },
        "slices": {}
    },
    "time": {
        "samples": {
            "AcquisitionNumber": [
                1,
                2,
                3,
                4,
                5,
                6,
                7,
                8,
                9,
                10,
                11,
                12,
                13,
                14,
                15,
                16,
                17,
                18,
                19,
                20,
                21,
                22,
                23,
                24,
                25,
                26,
                27,
                28,
                29,
                30,
                31,
                32,
                33,
                34,
                35,
                36,
                37,
                38,
                39,
                40,
                41,
                42,
                43,
                44,
                45,
                46,
                47,
                48,
                49,
                50,
                51,
                52,
                53,
                54,
                55,
                56,
                57,
                58,
                59,
                60,
                61,
                62,
                63,
                64,
                65,
                66,
                67,
                68,
                69,
                70,
                71,
                72,
                73,
                74,
                75,
                76,
                77,
                78,
                79,
                80,
                81,
                82,
                83,
                84,
                85,
                86,
                87,
                88,
                89,
                90,
                91,
                92,
                93,
                94,
                95,
                96,
                97,
                98,
                99,
                100,
                101,
                102,
                103,
                104,
                105,
                106,
                107,
                108,
                109,
                110,
                111,
                112,
                113,
                114,
                115,
                116,
                117,
                118,
                119,
                120,
                121,
                122,
                123,
                124,
                125,
                126,
                127,
                128,
                129,
                130,
                131,
                132,
                133,
                134,
                135,
                136,
                137,
                138,
                139,
                140,
                141,
                142,
                143,
                144,
                145,
                146,
                147,
                148,
                149,
                150,
                151,
                152,
                153,
                154,
                155,
                156,
                157,
                158,
                159,
                160,
                161,
                162,
                163,
                164,
                165,
                166,
                167,
                168,
                169,
                170,
                171,
                172,
                173,
                174,
                175,
                176,
                177,
                178,
                179,
                180,
                181,
                182,
                183,
                184,
                185,
                186,
                187,
                188,
                189,
                190,
                191,
                192,
                193,
                194,
                195,
                196,
                197,
                198,
                199,
                200,
                201,
                202,
                203,
                204,
                205,
                206,
                207,
                208,
                209,
                210,
                211,
                212,
                213,
                214,
                215,
                216,
                217,
                218,
                219,
                220,
                221,
                222,
                223,
                224,
                225,
                226,
                227,
                228,
                229,
                230,
                231,
                232,
                233,
                234,
                235,
                236,
                237,
                238,
                239,
                240,
                241,
                242,
                243,
                244,
                245,
                246,
                247,
                248,
                249,
                250,
                251,
                252,
                253,
                254,
                255,
                256,
                257,
                258,
                259,
                260,
                261,
                262,
                263,
                264,
                265,
                266,
                267,
                268,
                269,
                270,
                271,
                272,
                273,
                274,
                275,
                276,
                277,
                278,
                279,
                280,
                281,
                282,
                283,
                284,
                285,
                286,
                287,
                288,
                289,
                290,
                291,
                292,
                293,
                294,
                295,
                296,
                297,
                298,
                299,
                300,
                301,
                302,
                303,
                304,
                305,
                306,
                307,
                308,
                309,
                310,
                311,
                312,
                313,
                314,
                315,
                316,
                317,
                318,
                319,
                320,
                321,
                322,
                323,
                324,
                325,
                326,
                327,
                328,
                329,
                330,
                331,
                332,
                333,
                334,
                335,
                336,
                337,
                338,
                339,
                340,
                341,
                342,
                343,
                344,
                345,
                346,
                347,
                348,
                349,
                350,
                351,
                352,
                353,
                354,
                355,
                356,
                357,
                358,
                359,
                360,
                361,
                362,
                363,
                364,
                365,
                366,
                367,
                368,
                369,
                370,
                371,
                372,
                373,
                374,
                375,
                376,
                377,
                378,
                379,
                380,
                381,
                382,
                383,
                384,
                385,
                386,
                387,
                388,
                389,
                390,
                391,
                392,
                393,
                394,
                395,
                396,
                397,
                398,
                399,
                400,
                401,
                402,
                403,
                404,
                405,
                406,
                407,
                408,
                409,
                410,
                411,
                412,
                413,
                414,
                415,
                416,
                417,
                418,
                419,
                420,
                421,
                422,
                423,
                424,
                425,
                426,
                427,
                428,
                429,
                430,
                431,
                432,
                433,
                434,
                435,
                436,
                437,
                438,
                439,
                440,
                441,
                442,
                443,
                444,
                445,
                446,
                447,
                448,
                449,
                450,
                451,
                452,
                453,
                454,
                455,
                456,
                457,
                458,
                459,
                460,
                461,
                462,
                463,
                464,
                465,
                466,
                467,
                468,
                469,
                470,
                471,
                472,
                473,
                474,
                475,
                476,
                477,
                478,
                479,
                480,
                481,
                482,
                483,
                484,
                485,
                486,
                487,
                488,
                489,
                490,
                491,
                492,
                493,
                494,
                495,
                496,
                497,
                498,
                499,
                500,
                501,
                502,
                503,
                504,
                505,
                506,
                507,
                508,
                509,
                510
            ],
            "AcquisitionTime": [
                "125128.717500",
                "125129.327500",
                "125129.937500",
                "125130.547500",
                "125131.157500",
                "125131.767500",
                "125132.377500",
                "125132.987500",
                "125133.597500",
                "125134.207500",
                "125134.817500",
                "125135.427500",
                "125136.037500",
                "125136.647500",
                "125137.257500",
                "125137.867500",
                "125138.477500",
                "125139.087500",
                "125139.697500",
                "125140.307500",
                "125140.917500",
                "125141.527500",
                "125142.137500",
                "125142.747500",
                "125143.357500",
                "125143.967500",
                "125144.577500",
                "125145.187500",
                "125145.797500",
                "125146.407500",
                "125147.017500",
                "125147.627500",
                "125148.237500",
                "125148.847500",
                "125149.457500",
                "125150.067500",
                "125150.677500",
                "125151.287500",
                "125151.897500",
                "125152.507500",
                "125153.117500",
                "125153.727500",
                "125154.337500",
                "125154.947500",
                "125155.557500",
                "125156.167500",
                "125156.777500",
                "125157.387500",
                "125157.997500",
                "125158.607500",
                "125159.217500",
                "125159.827500",
                "125200.437500",
                "125201.047500",
                "125201.657500",
                "125202.267500",
                "125202.877500",
                "125203.487500",
                "125204.097500",
                "125204.707500",
                "125205.317500",
                "125205.927500",
                "125206.537500",
                "125207.147500",
                "125207.757500",
                "125208.367500",
                "125208.977500",
                "125209.587500",
                "125210.197500",
                "125210.807500",
                "125211.417500",
                "125212.027500",
                "125212.637500",
                "125213.247500",
                "125213.857500",
                "125214.467500",
                "125215.077500",
                "125215.687500",
                "125216.297500",
                "125216.907500",
                "125217.517500",
                "125218.127500",
                "125218.737500",
                "125219.347500",
                "125219.957500",
                "125220.567500",
                "125221.177500",
                "125221.787500",
                "125222.397500",
                "125223.007500",
                "125223.617500",
                "125224.227500",
                "125224.837500",
                "125225.447500",
                "125226.057500",
                "125226.667500",
                "125227.277500",
                "125227.887500",
                "125228.497500",
                "125229.107500",
                "125229.717500",
                "125230.327500",
                "125230.937500",
                "125231.547500",
                "125232.157500",
                "125232.767500",
                "125233.377500",
                "125233.987500",
                "125234.597500",
                "125235.207500",
                "125235.817500",
                "125236.427500",
                "125237.037500",
                "125237.647500",
                "125238.257500",
                "125238.867500",
                "125239.477500",
                "125240.087500",
                "125240.697500",
                "125241.307500",
                "125241.917500",
                "125242.527500",
                "125243.137500",
                "125243.747500",
                "125244.357500",
                "125244.967500",
                "125245.577500",
                "125246.187500",
                "125246.797500",
                "125247.407500",
                "125248.017500",
                "125248.627500",
                "125249.237500",
                "125249.847500",
                "125250.457500",
                "125251.067500",
                "125251.677500",
                "125252.287500",
                "125252.897500",
                "125253.507500",
                "125254.117500",
                "125254.727500",
                "125255.337500",
                "125255.947500",
                "125256.557500",
                "125257.167500",
                "125257.777500",
                "125258.387500",
                "125258.997500",
                "125259.607500",
                "125300.217500",
                "125300.827500",
                "125301.437500",
                "125302.047500",
                "125302.657500",
                "125303.267500",
                "125303.877500",
                "125304.487500",
                "125305.097500",
                "125305.707500",
                "125306.317500",
                "125306.927500",
                "125307.537500",
                "125308.147500",
                "125308.757500",
                "125309.367500",
                "125309.977500",
                "125310.587500",
                "125311.197500",
                "125311.807500",
                "125312.417500",
                "125313.027500",
                "125313.637500",
                "125314.247500",
                "125314.857500",
                "125315.467500",
                "125316.077500",
                "125316.687500",
                "125317.297500",
                "125317.907500",
                "125318.517500",
                "125319.127500",
                "125319.737500",
                "125320.347500",
                "125320.957500",
                "125321.567500",
                "125322.177500",
                "125322.787500",
                "125323.397500",
                "125324.007500",
                "125324.617500",
                "125325.227500",
                "125325.837500",
                "125326.447500",
                "125327.057500",
                "125327.667500",
                "125328.277500",
                "125328.887500",
                "125329.497500",
                "125330.107500",
                "125330.717500",
                "125331.327500",
                "125331.937500",
                "125332.547500",
                "125333.157500",
                "125333.767500",
                "125334.377500",
                "125334.987500",
                "125335.597500",
                "125336.207500",
                "125336.817500",
                "125337.427500",
                "125338.037500",
                "125338.647500",
                "125339.257500",
                "125339.867500",
                "125340.477500",
                "125341.087500",
                "125341.697500",
                "125342.307500",
                "125342.917500",
                "125343.527500",
                "125344.137500",
                "125344.747500",
                "125345.357500",
                "125345.967500",
                "125346.577500",
                "125347.187500",
                "125347.797500",
                "125348.407500",
                "125349.017500",
                "125349.627500",
                "125350.237500",
                "125350.847500",
                "125351.457500",
                "125352.067500",
                "125352.677500",
                "125353.287500",
                "125353.897500",
                "125354.507500",
                "125355.117500",
                "125355.727500",
                "125356.337500",
                "125356.947500",
                "125357.557500",
                "125358.167500",
                "125358.777500",
                "125359.387500",
                "125359.997500",
                "125400.607500",
                "125401.217500",
                "125401.827500",
                "125402.437500",
                "125403.047500",
                "125403.657500",
                "125404.267500",
                "125404.877500",
                "125405.487500",
                "125406.097500",
                "125406.707500",
                "125407.317500",
                "125407.927500",
                "125408.537500",
                "125409.147500",
                "125409.757500",
                "125410.367500",
                "125410.977500",
                "125411.587500",
                "125412.197500",
                "125412.807500",
                "125413.417500",
                "125414.027500",
                "125414.637500",
                "125415.247500",
                "125415.857500",
                "125416.467500",
                "125417.077500",
                "125417.687500",
                "125418.297500",
                "125418.907500",
                "125419.517500",
                "125420.127500",
                "125420.737500",
                "125421.347500",
                "125421.957500",
                "125422.567500",
                "125423.177500",
                "125423.787500",
                "125424.397500",
                "125425.007500",
                "125425.617500",
                "125426.227500",
                "125426.837500",
                "125427.447500",
                "125428.057500",
                "125428.667500",
                "125429.277500",
                "125429.887500",
                "125430.497500",
                "125431.107500",
                "125431.717500",
                "125432.327500",
                "125432.937500",
                "125433.547500",
                "125434.157500",
                "125434.767500",
                "125435.377500",
                "125435.987500",
                "125436.597500",
                "125437.207500",
                "125437.817500",
                "125438.427500",
                "125439.037500",
                "125439.647500",
                "125440.257500",
                "125440.867500",
                "125441.477500",
                "125442.087500",
                "125442.697500",
                "125443.307500",
                "125443.917500",
                "125444.527500",
                "125445.137500",
                "125445.747500",
                "125446.357500",
                "125446.967500",
                "125447.577500",
                "125448.187500",
                "125448.797500",
                "125449.407500",
                "125450.017500",
                "125450.627500",
                "125451.237500",
                "125451.847500",
                "125452.457500",
                "125453.067500",
                "125453.677500",
                "125454.287500",
                "125454.897500",
                "125455.507500",
                "125456.117500",
                "125456.727500",
                "125457.337500",
                "125457.947500",
                "125458.557500",
                "125459.167500",
                "125459.777500",
                "125500.387500",
                "125500.997500",
                "125501.607500",
                "125502.217500",
                "125502.827500",
                "125503.437500",
                "125504.047500",
                "125504.657500",
                "125505.267500",
                "125505.877500",
                "125506.487500",
                "125507.097500",
                "125507.707500",
                "125508.317500",
                "125508.927500",
                "125509.537500",
                "125510.147500",
                "125510.757500",
                "125511.367500",
                "125511.977500",
                "125512.587500",
                "125513.197500",
                "125513.807500",
                "125514.417500",
                "125515.027500",
                "125515.637500",
                "125516.247500",
