{"AcquisitionMatrixPE": 64, "AcquisitionNumber": 1, "AcquisitionTime": "10:55:16.990000", "BandwidthPerPixelPhaseEncode": 28.935, "BaseResolution": 64, "BodyPartExamined": "BRAIN", "CoilCombinationMethod": "Sum of Squares", "ConsistencyInfo": "N4_VE11E_LATEST_20181129", "ConversionSoftware": "dcm2niix", "ConversionSoftwareVersion": "v1.0.20230411", "DerivedVendorReportedEchoSpacing": 0.000540003, "DeviceSerialNumber": "166182", "DwellTime": 3.4e-06, "EchoTime": 0.032, "EchoTrainLength": 64, "EffectiveEchoSpacing": 0.000540003, "FlipAngle": 40, "HeudiconvVersion": "0.13.1", "ImageOrientationPatientDICOM": [0.995568, 0.002712, -0.0940057, -0.00573405, 0.999475, -0.0318923], "ImageOrientationText": "Tra>Sag(-5.4)>Cor(-1.9)", "ImageType": ["ORIGINAL", "PRIMARY", "M", "ND", "NORM", "MOSAIC"], "ImagingFrequency": 123.255448, "InPlanePhaseEncodingDirectionDICOM": "COL", "InstitutionAddress": "PEARSE STREET .,City,District,IE,D2", "InstitutionName": "TCIN", "InstitutionalDepartmentName": "MRI", "MRAcquisitionType": "2D", "MagneticFieldStrength": 3, "Manufacturer": "Siemens", "ManufacturersModelName": "Prisma", "Modality": "MR", "MultibandAccelerationFactor": 4, "NonlinearGradientCorrection": false, "PartialFourier": 1, "PatientPosition": "HFS", "PercentPhaseFOV": 100, "PercentSampling": 100, "PhaseEncodingDirection": "j-", "PhaseEncodingSteps": 64, "PhaseResolution": 1, "PixelBandwidth": 2300, "ProcedureStepDescription": "Rhodri^Head BOLD", "ProtocolName": "cmrr_mbep2d_Pictures_AP_RDS", "PulseSequenceDetails": "%SiemensSeq%\\ep2d_bold", "ReceiveCoilActiveElements": "HC2,4,6,7;SC", "ReceiveCoilName": "SpecialPurpose_4", "ReconMatrixPE": 64, "RefLinesPE": 12, "RepetitionTime": 0.61, "SAR": 0.271541, "ScanOptions": "FS", "ScanningSequence": "EP", "SequenceName": "*epfid2d1_64", "SequenceVariant": "SK", "SeriesDescription": "cmrr_mbep2d_Pictures_AP_RDS", "SeriesNumber": 5, "ShimSetting": [-3638, -7472, 3690, 1156, -56, -166, 325, 187], "SliceThickness": 3, "SliceTiming": [0.26, 0, 0.3275, 0.065, 0.3925, 0.13, 0.4575, 0.195, 0.5225, 0.26, 0, 0.3275, 0.065, 0.3925, 0.13, 0.4575, 0.195, 0.5225, 0.26, 0, 0.3275, 0.065, 0.3925, 0.13, 0.4575, 0.195, 0.5225, 0.26, 0, 0.3275, 0.065, 0.3925, 0.13, 0.4575, 0.195, 0.5225], "SoftwareVersions": "syngo MR E11", "SpacingBetweenSlices": 3.3, "StationName": "AWP166182", "TaskName": "pictures", "TotalReadoutTime": 0.0340202, "TxRefAmp": 244.679, "dcmmeta_affine": [[-2.986703872680664, -0.017202138900756836, -0.3097705543041229, 101.19188690185547], [-0.008135993964970112, 2.998424530029297, -0.1065569669008255, -93.53701782226562], [-0.28201717138290405, 0.09567691385746002, 3.283700466156006, -98.30362701416016], [0.0, 0.0, 0.0, 1.0]], "dcmmeta_reorient_transform": [[0.0, -1.0, 0.0, 63.0], [1.0, 0.0, 0.0, 0.0], [0.0, 0.0, 1.0, 0.0], [0.0, 0.0, 0.0, 1.0]], "dcmmeta_shape": [64, 64, 36, 510], "dcmmeta_slice_dim": 2, "dcmmeta_version": 0.6, "global": {"const": {"AcquisitionMatrix": [64, 0, 0, 64], "AngioFlag": "N", "BitsAllocated": 16, "BitsStored": 12, "BodyPartExamined": "BRAIN", "Columns": 384, "EchoNumbers": 1, "EchoTime": 32.0, "EchoTrainLength": 64, "FlipAngle": 40.0, "HighBit": 11, "ImageOrientationPatient": [0.99556796303172, 0.00271199810233, -0.0940057235022, -0.0057340465153, 0.9994748629552, -0.0318923036365], "ImagePositionPatient": [-575.22843520622, -576.41342631737, -31.844926614668], "ImageType": ["ORIGINAL", "PRIMARY", "M", "ND", "NORM", "MOSAIC"], "ImagedNucleus": "1H", "ImagingFrequency": 123.255448, "InPlanePhaseEncodingDirection": "COL", "MRAcquisitionType": "2D", "MagneticFieldStrength": 3.0, "Manufacturer": "SIEMENS", "ManufacturerModelName": "Prisma", "Modality": "MR", "NumberOfAverages": 1.0, "NumberOfPhaseEncodingSteps": 64, "PercentPhaseFieldOfView": 100.0, "PercentSampling": 100.0, "PerformedProcedureStepStartTime": "103907.260000", "PhotometricInterpretation": "MONOCHROME2", "PixelBandwidth": 2300.0, "PixelRepresentation": 0, "PixelSpacing": [3.0, 3.0], "ProtocolName": "cmrr_mbep2d_Pictures_AP_RDS", "RepetitionTime": 610.0, "Rows": 384, "SAR": 0.27154056432332, "SamplesPerPixel": 1, "ScanOptions": "FS", "ScanningSequence": "EP", "SequenceName": "*epfid2d1_64", "SequenceVariant": "SK", "SeriesDescription": "cmrr_mbep2d_Pictures_AP_RDS", "SeriesNumber": 5, "SeriesTime": "105546.490000", "SliceLocation": -104.29663425895, "SliceThickness": 3.0, "SmallestImagePixelValue": 0, "SoftwareVersions": "syngo MR E11", "SpacingBetweenSlices": 3.30000004729, "SpecificCharacterSet": "ISO_IR 100", "StudyID": "2", "StudyTime": "103907.172000", "TransmitCoilName": "Body", "VariableFlipAngleFlag": "N", "WindowCenterWidthExplanation": "Algo1"}, "slices": {}}, "time": {"samples": {"AcquisitionNumber": [1, 2, 3, 4, 5, 6, 7, 8, 9, 10, 11, 12, 13, 14, 15, 16, 17, 18, 19, 20, 21, 22, 23, 24, 25, 26, 27, 28, 29, 30, 31, 32, 33, 34, 35, 36, 37, 38, 39, 40, 41, 42, 43, 44, 45, 46, 47, 48, 49, 50, 51, 52, 53, 54, 55, 56, 57, 58, 59, 60, 61, 62, 63, 64, 65, 66, 67, 68, 69, 70, 71, 72, 73, 74, 75, 76, 77, 78, 79, 80, 81, 82, 83, 84, 85, 86, 87, 88, 89, 90, 91, 92, 93, 94, 95, 96, 97, 98, 99, 100, 101, 102, 103, 104, 105, 106, 107, 108, 109, 110, 111, 112, 113, 114, 115, 116, 117, 118, 119, 120, 121, 122, 123, 124, 125, 126, 127, 128, 129, 130, 131, 132, 133, 134, 135, 136, 137, 138, 139, 140, 141, 142, 143, 144, 145, 146, 147, 148, 149, 150, 151, 152, 153, 154, 155, 156, 157, 158, 159, 160, 161, 162, 163, 164, 165, 166, 167, 168, 169, 170, 171, 172, 173, 174, 175, 176, 177, 178, 179, 180, 181, 182, 183, 184, 185, 186, 187, 188, 189, 190, 191, 192, 193, 194, 195, 196, 197, 198, 199, 200, 201, 202, 203, 204, 205, 206, 207, 208, 209, 210, 211, 212, 213, 214, 215, 216, 217, 218, 219, 220, 221, 222, 223, 224, 225, 226, 227, 228, 229, 230, 231, 232, 233, 234, 235, 236, 237, 238, 239, 240, 241, 242, 243, 244, 245, 246, 247, 248, 249, 250, 251, 252, 253, 254, 255, 256, 257, 258, 259, 260, 261, 262, 263, 264, 265, 266, 267, 268, 269, 270, 271, 272, 273, 274, 275, 276, 277, 278, 279, 280, 281, 282, 283, 284, 285, 286, 287, 288, 289, 290, 291, 292, 293, 294, 295, 296, 297, 298, 299, 300, 301, 302, 303, 304, 305, 306, 307, 308, 309, 310, 311, 312, 313, 314, 315, 316, 317, 318, 319, 320, 321, 322, 323, 324, 325, 326, 327, 328, 329, 330, 331, 332, 333, 334, 335, 336, 337, 338, 339, 340, 341, 342, 343, 344, 345, 346, 347, 348, 349, 350, 351, 352, 353, 354, 355, 356, 357, 358, 359, 360, 361, 362, 363, 364, 365, 366, 367, 368, 369, 370, 371, 372, 373, 374, 375, 376, 377, 378, 379, 380, 381, 382, 383, 384, 385, 386, 387, 388, 389, 390, 391, 392, 393, 394, 395, 396, 397, 398, 399, 400, 401, 402, 403, 404, 405, 406, 407, 408, 409, 410, 411, 412, 413, 414, 415, 416, 417, 418, 419, 420, 421, 422, 423, 424, 425, 426, 427, 428, 429, 430, 431, 432, 433, 434, 435, 436, 437, 438, 439, 440, 441, 442, 443, 444, 445, 446, 447, 448, 449, 450, 451, 452, 453, 454, 455, 456, 457, 458, 459, 460, 461, 462, 463, 464, 465, 466, 467, 468, 469, 470, 471, 472, 473, 474, 475, 476, 477, 478, 479, 480, 481, 482, 483, 484, 485, 486, 487, 488, 489, 490, 491, 492, 493, 494, 495, 496, 497, 498, 499, 500, 501, 502, 503, 504, 505, 506, 507, 508, 509, 510], "AcquisitionTime": ["105516.990000", "105517.600000", "105518.210000", "105518.820000", "105519.430000", "105520.040000", "105520.650000", "105521.260000", "105521.870000", "105522.480000", "105523.090000", "105523.700000", "105524.310000", "105524.920000", "105525.530000", "105526.140000", "105526.750000", "105527.360000", "105527.970000", "105528.580000", "105529.190000", "105529.800000", "105530.410000", "105531.020000", "105531.630000", "105532.240000", "105532.850000", "105533.460000", "105534.070000", "105534.680000", "105535.290000", "105535.900000", "105536.510000", "105537.120000", "105537.730000", "105538.340000", "105538.950000", "105539.560000", "105540.170000", "105540.780000", "105541.390000", "105542.000000", "105542.610000", "105543.220000", "105543.830000", "105544.440000", "105545.050000", "105545.660000", "105546.270000", "105546.880000", "105547.490000", "105548.100000", "105548.710000", "105549.320000", "105549.930000", "105550.540000", "105551.150000", "105551.760000", "105552.370000", "105552.980000", "105553.590000", "105554.200000", "105554.810000", "105555.420000", "105556.030000", "105556.640000", "105557.250000", "105557.860000", "105558.470000", "105559.080000", "105559.690000", "105600.300000", "105600.910000", "105601.520000", "105602.130000", "105602.740000", "105603.350000", "105603.960000", "105604.570000", "105605.180000", "105605.790000", "105606.400000", "105607.010000", "105607.620000", "105608.230000", "105608.840000", "105609.450000", "105610.060000", "105610.670000", "105611.280000", "105611.890000", "105612.500000", "105613.110000", "105613.720000", "105614.330000", "105614.940000", "105615.550000", "105616.160000", "105616.770000", "105617.380000", "105617.990000", "105618.600000", "105619.210000", "105619.820000", "105620.430000", "105621.040000", "105621.650000", "105622.260000", "105622.870000", "105623.480000", "105624.090000", "105624.700000", "105625.310000", "105625.920000", "105626.530000", "105627.140000", "105627.750000", "105628.360000", "105628.970000", "105629.580000", "105630.190000", "105630.800000", "105631.410000", "105632.020000", "105632.630000", "105633.240000", "105633.850000", "105634.460000", "105635.070000", "105635.680000", "105636.290000", "105636.900000", "105637.510000", "105638.120000", "105638.730000", "105639.340000", "105639.950000", "105640.560000", "105641.170000", "105641.780000", "105642.390000", "105643.000000", "105643.610000", "105644.220000", "105644.830000", "105645.440000", "105646.050000", "105646.660000", "105647.270000", "105647.880000", "105648.490000", "105649.100000", "105649.710000", "105650.320000", "105650.930000", "105651.540000", "105652.150000", "105652.760000", "105653.370000", "105653.980000", "105654.590000", "105655.200000", "105655.810000", "105656.420000", "105657.030000", "105657.640000", "105658.250000", "105658.860000", "105659.470000", "105700.080000", "105700.690000", "105701.300000", "105701.910000", "105702.520000", "105703.130000", "105703.740000", "105704.350000", "105704.960000", "105705.570000", "105706.180000", "105706.790000", "105707.400000", "105708.010000", "105708.620000", "105709.230000", "105709.840000", "105710.450000", "105711.060000", "105711.670000", "105712.280000", "105712.890000", "105713.500000", "105714.110000", "105714.720000", "105715.330000", "105715.940000", "105716.550000", "105717.160000", "105717.770000", "105718.380000", "105718.990000", "105719.600000", "105720.210000", "105720.820000", "105721.430000", "105722.040000", "105722.650000", "105723.260000", "105723.870000", "105724.480000", "105725.090000", "105725.700000", "105726.310000", "105726.920000", "105727.530000", "105728.140000", "105728.750000", "105729.360000", "105729.970000", "105730.580000", "105731.190000", "105731.800000", "105732.410000", "105733.020000", "105733.630000", "105734.240000", "105734.850000", "105735.460000", "105736.070000", "105736.680000", "105737.290000", "105737.900000", "105738.510000", "105739.120000", "105739.730000", "105740.340000", "105740.950000", "105741.560000", "105742.170000", "105742.780000", "105743.390000", "105744.000000", "105744.610000", "105745.220000", "105745.830000", "105746.440000", "105747.050000", "105747.660000", "105748.270000", "105748.880000", "105749.490000", "105750.100000", "105750.710000", "105751.320000", "105751.930000", "105752.540000", "105753.150000", "105753.760000", "105754.370000", "105754.980000", "105755.590000", "105756.200000", "105756.810000", "105757.420000", "105758.030000", "105758.640000", "105759.250000", "105759.860000", "105800.470000", "105801.080000", "105801.690000", "105802.300000", "105802.910000", "105803.520000", "105804.130000", "105804.740000", "105805.350000", "105805.960000", "105806.570000", "105807.180000", "105807.790000", "105808.400000", "105809.010000", "105809.620000", "105810.230000", "105810.840000", "105811.450000", "105812.060000", "105812.670000", "105813.280000", "105813.890000", "105814.500000", "105815.110000", "105815.720000", "105816.330000", "105816.940000", "105817.550000", "105818.160000", "105818.770000", "105819.380000", "105819.990000", "105820.600000", "105821.210000", "105821.820000", "105822.430000", "105823.040000", "105823.650000", "105824.260000", "105824.870000", "105825.480000", "105826.090000", "105826.700000", "105827.310000", "105827.920000", "105828.530000", "105829.140000", "105829.750000", "105830.360000", "105830.970000", "105831.580000", "105832.190000", "105832.800000", "105833.410000", "105834.020000", "105834.630000", "105835.240000", "105835.850000", "105836.460000", "105837.070000", "105837.680000", "105838.290000", "105838.900000", "105839.510000", "105840.120000", "105840.730000", "105841.340000", "105841.950000", "105842.560000", "105843.170000", "105843.780000", "105844.390000", "105845.000000", "105845.610000", "105846.220000", "105846.830000", "105847.440000", "105848.050000", "105848.660000", "105849.270000", "105849.880000", "105850.490000", "105851.100000", "105851.710000", "105852.320000", "105852.930000", "105853.540000", "105854.150000", "105854.760000", "105855.370000", "105855.980000", "105856.590000", "105857.200000", "105857.810000", "105858.420000", "105859.030000", "105859.640000", "105900.250000", "105900.860000", "105901.470000", "105902.080000", "105902.690000", "105903.300000", "105903.910000", "105904.520000", "105905.130000", "105905.740000", "105906.350000", "105906.960000", "105907.570000", "105908.180000", "105908.790000", "105909.400000", "105910.010000", "105910.620000", "105911.230000", "105911.840000", "105912.450000", "105913.060000", "105913.670000", "105914.280000", "105914.890000", "105915.500000", "105916.110000", "105916.720000", "105917.330000", "105917.940000", "105918.550000", "105919.160000", "105919.770000", "105920.380000", "105920.990000", "105921.600000", "105922.210000", "105922.820000", "105923.430000", "105924.040000", "105924.650000", "105925.260000", "105925.870000", "105926.480000", "105927.090000", "105927.700000", "105928.310000", "105928.920000", "105929.530000", "105930.140000", "105930.750000", "105931.360000", "105931.970000", "105932.580000", "105933.190000", "105933.800000", "105934.410000", "105935.020000", "105935.630000", "105936.240000", "105936.850000", "105937.460000", "105938.070000", "105938.680000", "105939.290000", "105939.900000", "105940.510000", "105941.120000", "105941.730000", "105942.340000", "105942.950000", "105943.560000", "105944.170000", "105944.780000", "105945.390000", "105946.000000", "105946.610000", "105947.220000", "105947.830000", "105948.440000", "105949.050000", "105949.660000", "105950.270000", "105950.880000", "105951.490000", "105952.100000", "105952.710000", "105953.320000", "105953.930000", "105954.540000", "105955.150000", "105955.760000", "105956.370000", "105956.980000", "105957.590000", "105958.200000", "105958.810000", "105959.420000", "110000.030000", "110000.640000", "110001.250000", "110001.860000", "110002.470000", "110003.080000", "110003.690000", "110004.300000", "110004.910000", "110005.520000", "110006.130000", "110006.740000", "110007.350000", "110007.960000", "110008.570000", "110009.180000", "110009.790000", "110010.400000", "110011.010000", "110011.620000", "110012.230000", "110012.840000", "110013.450000", "110014.060000", "110014.670000", "110015.280000", "110015.890000", "110016.500000", "110017.110000", "110017.720000", "110018.330000", "110018.940000", "110019.550000", "110020.160000", "110020.770000", "110021.380000", "110021.990000", "110022.600000", "110023.210000", "110023.820000", "110024.430000", "110025.040000", "110025.650000", "110026.260000", "110026.870000", "110027.480000"], "ContentTime": ["105546.504000", "105546.507000", "105546.510000", "105546.512000", "105546.515000", "105546.517000", "105546.519000", "105546.522000", "105546.524000", "105546.527000", "105546.530000", "105546.532000", "105546.534000", "105546.537000", "105546.539000", "105546.542000", "105546.544000", "105546.546000", "105546.549000", "105546.551000", "105546.554000", "105546.559000", "105546.561000", "105546.563000", "105546.566000", "105546.568000", "105546.571000", "105546.573000", "105546.575000", "105546.578000", "105546.580000", "105546.582000", "105546.585000", "105546.587000", "105546.590000", "105546.592000", "105546.594000", "105546.597000", "105546.604000", "105546.607000", "105546.609000", "105546.611000", "105546.614000", "105546.616000", "105546.618000", "105546.621000", "105546.623000", "105606.488000", "105606.491000", "105606.493000", "105606.496000", "105606.498000", "105606.500000", "105606.503000", "105606.505000", "105606.507000", "105606.510000", "105606.512000", "105606.515000", "105606.517000", "105606.520000", "105606.522000", "105606.525000", "105606.527000", "105606.529000", "105606.532000", "105606.534000", "105606.536000", "105606.539000", "105606.541000", "105606.544000", "105606.546000", "105606.549000", "105606.551000", "105606.553000", "105606.556000", "105606.558000", "105606.561000", "105606.563000", "105606.565000", "105626.489000", "105626.492000", "105626.495000", "105626.498000", "105626.500000", "105626.502000", "105626.505000", "105626.507000", "105626.509000", "105626.512000", "105626.514000", "105626.517000", "105626.524000", "105626.531000", "105626.533000", "105626.536000", "105626.538000", "105626.540000", "105626.543000", "105626.545000", "105626.547000", "105626.550000", "105626.552000", "105626.554000", "105626.557000", "105626.559000", "105626.562000", "105626.564000", "105626.566000", "105626.569000", "105626.571000", "105626.573000", "105626.576000", "105646.489000", "105646.492000", "105646.494000", "105646.497000", "105646.499000", "105646.501000", "105646.504000", "105646.506000", "105646.508000", "105646.537000", "105646.539000", "105646.541000", "105646.544000", "105646.546000", "105646.549000", "105646.551000", "105646.553000", "105646.556000", "105646.558000", "105646.582000", "105646.584000", "105646.587000", "105646.589000", "105646.592000", "105646.594000", "105646.596000", "105646.599000", "105646.601000", "105646.604000", "105646.606000", "105646.608000", "105646.611000", "105646.613000", "105706.489000", "105706.492000", "105706.494000", "105706.497000", "105706.499000", "105706.502000", "105706.504000", "105706.506000", "105706.509000", "105706.511000", "105706.513000", "105706.516000", "105706.518000", "105706.520000", "105706.523000", "105706.525000", "105706.528000", "105706.530000", "105706.532000", "105706.535000", "105706.537000", "105706.539000", "105706.542000", "105706.544000", "105706.546000", "105706.549000", "105706.551000", "105706.554000", "105706.556000", "105706.558000", "105706.561000", "105706.563000", "105706.565000", "105726.488000", "105726.491000", "105726.493000", "105726.496000", "105726.498000", "105726.501000", "105726.503000", "105726.505000", "105726.508000", "105726.510000", "105726.512000", "105726.515000", "105726.517000", "105726.520000", "105726.522000", "105726.524000", "105726.527000", "105726.529000", "105726.532000", "105726.534000", "105726.537000", "105726.539000", "105726.542000", "105726.544000", "105726.546000", "105726.549000", "105726.551000", "105726.554000", "105726.556000", "105726.558000", "105726.561000", "105726.563000", "105746.488000", "105746.491000", "105746.493000", "105746.496000", "105746.498000", "105746.501000", "105746.503000", "105746.506000", "105746.508000", "105746.511000", "105746.513000", "105746.516000", "105746.518000", "105746.521000", "105746.523000", "105746.526000", "105746.528000", "105746.531000", "105746.533000", "105746.535000", "105746.538000", "105746.540000", "105746.542000", "105746.545000", "105746.547000", "105746.550000", "105746.552000", "105746.555000", "105746.558000", "105746.560000", "105746.563000", "105746.565000", "105746.568000", "105806.488000", "105806.491000", "105806.493000", "105806.496000", "105806.498000", "105806.500000", "105806.503000", "105806.505000", "105806.507000", "105806.510000", "105806.512000", "105806.515000", "105806.517000", "105806.519000", "105806.522000", "105806.524000", "105806.526000", "105806.529000", "105806.531000", "105806.533000", "105806.536000", "105806.539000", "105806.541000", "105806.543000", "105806.546000", "105806.548000", "105806.550000", "105806.553000", "105806.555000", "105806.557000", "105806.560000", "105806.562000", "105806.565000", "105826.488000", "105826.491000", "105826.493000", "105826.496000", "105826.498000", "105826.501000", "105826.503000", "105826.505000", "105826.508000", "105826.510000", "105826.513000", "105826.515000", "105826.517000", "105826.520000", "105826.522000", "105826.524000", "105826.527000", "105826.529000", "105826.532000", "105826.534000", "105826.536000", "105826.539000", "105826.541000", "105826.543000", "105826.546000", "105826.548000", "105826.551000", "105826.553000", "105826.555000", "105826.558000", "105826.560000", "105826.562000", "105826.565000", "105846.489000", "105846.492000", "105846.494000", "105846.497000", "105846.499000", "105846.502000", "105846.504000", "105846.506000", "105846.509000", "105846.511000", "105846.513000", "105846.516000", "105846.518000", "105846.520000", "105846.523000", "105846.525000", "105846.528000", "105846.530000", "105846.532000", "105846.535000", "105846.537000", "105846.539000", "105846.542000", "105846.544000", "105846.547000", "105846.549000", "105846.551000", "105846.554000", "105846.556000", "105846.559000", "105846.561000", "105846.563000", "105906.489000", "105906.492000", "105906.494000", "105906.496000", "105906.499000", "105906.501000", "105906.504000", "105906.506000", "105906.508000", "105906.511000", "105906.513000", "105906.516000", "105906.518000", "105906.521000", "105906.523000", "105906.525000", "105906.528000", "105906.530000", "105906.533000", "105906.535000", "105906.538000", "105906.540000", "105906.542000", "105906.545000", "105906.547000", "105906.549000", "105906.552000", "105906.554000", "105906.556000", "105906.559000", "105906.561000", "105906.564000", "105906.566000", "105926.489000", "105926.492000", "105926.494000", "105926.497000", "105926.499000", "105926.501000", "105926.504000", "105926.506000", "105926.509000", "105926.511000", "105926.513000", "105926.516000", "105926.518000", "105926.520000", "105926.523000", "105926.525000", "105926.528000", "105926.530000", "105926.532000", "105926.535000", "105926.537000", "105926.539000", "105926.547000", "105926.550000", "105926.552000", "105926.555000", "105926.557000", "105926.559000", "105926.562000", "105926.564000", "105926.566000", "105926.569000", "105926.571000", "105946.488000", "105946.491000", "105946.493000", "105946.496000", "105946.498000", "105946.501000", "105946.503000", "105946.506000", "105946.508000", "105946.511000", "105946.513000", "105946.515000", "105946.518000", "105946.520000", "105946.523000", "105946.525000", "105946.527000", "105946.530000", "105946.532000", "105946.534000", "105946.537000", "105946.539000", "105946.542000", "105946.544000", "105946.546000", "105946.549000", "105946.551000", "105946.554000", "105946.556000", "105946.558000", "105946.561000", "105946.563000", "105946.566000", "110006.488000", "110006.491000", "110006.493000", "110006.496000", "110006.498000", "110006.501000", "110006.503000", "110006.506000", "110006.508000", "110006.510000", "110006.513000", "110006.515000", "110006.518000", "110006.521000", "110006.523000", "110006.526000", "110006.528000", "110006.531000", "110006.533000", "110006.536000", "110006.538000", "110006.540000", "110006.543000", "110006.545000", "110006.548000", "110006.550000", "110006.552000", "110006.555000", "110006.557000", "110006.560000", "110006.562000", "110006.565000", "110006.567000", "110026.488000", "110026.491000", "110026.493000", "110026.496000", "110026.498000", "110026.501000", "110026.503000", "110026.506000", "110026.508000", "110026.511000", "110026.513000", "110026.515000", "110026.518000", "110026.520000", "110026.523000", "110026.525000", "110026.527000", "110026.530000", "110026.533000", "110026.535000", "110026.538000", "110026.540000", "110026.543000", "110026.545000", "110026.548000", "110026.559000", "110026.561000", "110026.564000", "110026.576000", "110026.578000", "110026.581000", "110026.583000", "110028.335000", "110028.338000", "110028.341000", "110028.343000"], "InstanceCreationTime": ["105546.504000", "105546.507000", "105546.510000", "105546.512000", "105546.515000", "105546.517000", "105546.519000", "105546.522000", "105546.524000", "105546.527000", "105546.530000", "105546.532000", "105546.534000", "105546.537000", "105546.539000", "105546.542000", "105546.544000", "105546.546000", "105546.549000", "105546.551000", "105546.554000", "105546.559000", "105546.561000", "105546.563000", "105546.566000", "105546.568000", "105546.571000", "105546.573000", "105546.575000", "105546.578000", "105546.580000", "105546.582000", "105546.585000", "105546.587000", "105546.590000", "105546.592000", "105546.594000", "105546.597000", "105546.604000", "105546.607000", "105546.609000", "105546.611000", "105546.614000", "105546.616000", "105546.618000", "105546.621000", "105546.623000", "105606.488000", "105606.491000", "105606.493000", "105606.496000", "105606.498000", "105606.500000", "105606.503000", "105606.505000", "105606.507000", "105606.510000", "105606.512000", "105606.515000", "105606.517000", "105606.520000", "105606.522000", "105606.525000", "105606.527000", "105606.529000", "105606.532000", "105606.534000", "105606.536000", "105606.539000", "105606.541000", "105606.544000", "105606.546000", "105606.549000", "105606.551000", "105606.553000", "105606.556000", "105606.558000", "105606.561000", "105606.563000", "105606.565000", "105626.489000", "105626.492000", "105626.495000", "105626.498000", "105626.500000", "105626.502000", "105626.505000", "105626.507000", "105626.509000", "105626.512000", "105626.514000", "105626.517000", "105626.524000", "105626.531000", "105626.533000", "105626.536000", "105626.538000", "105626.540000", "105626.543000", "105626.545000", "105626.547000", "105626.550000", "105626.552000", "105626.554000", "105626.557000", "105626.559000", "105626.562000", "105626.564000", "105626.566000", "105626.569000", "105626.571000", "105626.573000", "105626.576000", "105646.489000", "105646.492000", "105646.494000", "105646.497000", "105646.499000", "105646.501000", "105646.504000", "105646.506000", "105646.508000", "105646.537000", "105646.539000", "105646.541000", "105646.544000", "105646.546000", "105646.549000", "105646.551000", "105646.553000", "105646.556000", "105646.558000", "105646.582000", "105646.584000", "105646.587000", "105646.589000", "105646.592000", "105646.594000", "105646.596000", "105646.599000", "105646.601000", "105646.604000", "105646.606000", "105646.608000", "105646.611000", "105646.613000", "105706.489000", "105706.492000", "105706.494000", "105706.497000", "105706.499000", "105706.502000", "105706.504000", "105706.506000", "105706.509000", "105706.511000", "105706.513000", "105706.516000", "105706.518000", "105706.520000", "105706.523000", "105706.525000", "105706.528000", "105706.530000", "105706.532000", "105706.535000", "105706.537000", "105706.539000", "105706.542000", "105706.544000", "105706.546000", "105706.549000", "105706.551000", "105706.554000", "105706.556000", "105706.558000", "105706.561000", "105706.563000", "105706.565000", "105726.488000", "105726.491000", "105726.493000", "105726.496000", "105726.498000", "105726.501000", "105726.503000", "105726.505000", "105726.508000", "105726.510000", "105726.512000", "105726.515000", "105726.517000", "105726.520000", "105726.522000", "105726.524000", "105726.527000", "105726.529000", "105726.532000", "105726.534000", "105726.537000", "105726.539000", "105726.542000", "105726.544000", "105726.546000", "105726.549000", "105726.551000", "105726.554000", "105726.556000", "105726.558000", "105726.561000", "105726.563000", "105746.488000", "105746.491000", "105746.493000", "105746.496000", "105746.498000", "105746.501000", "105746.503000", "105746.506000", "105746.508000", "105746.511000", "105746.513000", "105746.516000", "105746.518000", "105746.521000", "105746.523000", "105746.526000", "105746.528000", "105746.531000", "105746.533000", "105746.535000", "105746.538000", "105746.540000", "105746.542000", "105746.545000", "105746.547000", "105746.550000", "105746.552000", "105746.555000", "105746.558000", "105746.560000", "105746.563000", "105746.565000", "105746.568000", "105806.488000", "105806.491000", "105806.493000", "105806.496000", "105806.498000", "105806.500000", "105806.503000", "105806.505000", "105806.507000", "105806.510000", "105806.512000", "105806.515000", "105806.517000", "105806.519000", "105806.522000", "105806.524000", "105806.526000", "105806.529000", "105806.531000", "105806.533000", "105806.536000", "105806.539000", "105806.541000", "105806.543000", "105806.546000", "105806.548000", "105806.550000", "105806.553000", "105806.555000", "105806.557000", "105806.560000", "105806.562000", "105806.565000", "105826.488000", "105826.491000", "105826.493000", "105826.496000", "105826.498000", "105826.501000", "105826.503000", "105826.505000", "105826.508000", "105826.510000", "105826.513000", "105826.515000", "105826.517000", "105826.520000", "105826.522000", "105826.524000", "105826.527000", "105826.529000", "105826.532000", "105826.534000", "105826.536000", "105826.539000", "105826.541000", "105826.543000", "105826.546000", "105826.548000", "105826.551000", "105826.553000", "105826.555000", "105826.558000", "105826.560000", "105826.562000", "105826.565000", "105846.489000", "105846.492000", "105846.494000", "105846.497000", "105846.499000", "105846.502000", "105846.504000", "105846.506000", "105846.509000", "105846.51100