{"AcquisitionMatrixPE": 64, "AcquisitionNumber": 1, "AcquisitionTime": "10:44:39.700000", "BandwidthPerPixelPhaseEncode": 28.935, "BaseResolution": 64, "BodyPartExamined": "BRAIN", "CoilCombinationMethod": "Sum of Squares", "ConsistencyInfo": "N4_VE11E_LATEST_20181129", "ConversionSoftware": "dcm2niix", "ConversionSoftwareVersion": "v1.0.20230411", "DerivedVendorReportedEchoSpacing": 0.000540003, "DeviceSerialNumber": "166182", "DwellTime": 3.4e-06, "EchoTime": 0.032, "EchoTrainLength": 64, "EffectiveEchoSpacing": 0.000540003, "FlipAngle": 40, "HeudiconvVersion": "0.13.1", "ImageOrientationPatientDICOM": [0.998894, 0.0206479, -0.0422482, -0.020575, 0.999786, 0.0021597], "ImageOrientationText": "Tra>Sag(-2.4)>Cor(0.1)", "ImageType": ["ORIGINAL", "PRIMARY", "M", "ND", "NORM", "MOSAIC"], "ImagingFrequency": 123.255628, "InPlanePhaseEncodingDirectionDICOM": "COL", "InstitutionAddress": "PEARSE STREET .,City,District,IE,D2", "InstitutionName": "TCIN", "InstitutionalDepartmentName": "MRI", "MRAcquisitionType": "2D", "MagneticFieldStrength": 3, "Manufacturer": "Siemens", "ManufacturersModelName": "Prisma", "Modality": "MR", "MultibandAccelerationFactor": 4, "NonlinearGradientCorrection": false, "PartialFourier": 1, "PatientPosition": "HFS", "PercentPhaseFOV": 100, "PercentSampling": 100, "PhaseEncodingDirection": "j-", "PhaseEncodingSteps": 64, "PhaseResolution": 1, "PixelBandwidth": 2300, "ProcedureStepDescription": "Rhodri^Head BOLD", "ProtocolName": "cmrr_mbep2d_Pictures_AP_RDS", "PulseSequenceDetails": "%SiemensSeq%\\ep2d_bold", "ReceiveCoilActiveElements": "HC2,4,6,7;SC", "ReceiveCoilName": "SpecialPurpose_4", "ReconMatrixPE": 64, "RefLinesPE": 12, "RepetitionTime": 0.61, "SAR": 0.464462, "ScanOptions": "FS", "ScanningSequence": "EP", "SequenceName": "*epfid2d1_64", "SequenceVariant": "SK", "SeriesDescription": "cmrr_mbep2d_Pictures_AP_RDS", "SeriesNumber": 8, "ShimSetting": [-3643, -7476, 3815, 928, 56, -52, 300, 46], "SliceThickness": 3, "SliceTiming": [0.26, 0, 0.3275, 0.065, 0.3925, 0.13, 0.4575, 0.195, 0.5225, 0.26, 0, 0.3275, 0.065, 0.3925, 0.13, 0.4575, 0.195, 0.5225, 0.26, 0, 0.3275, 0.065, 0.3925, 0.13, 0.4575, 0.195, 0.5225, 0.26, 0, 0.3275, 0.065, 0.3925, 0.13, 0.4575, 0.195, 0.5225], "SoftwareVersions": "syngo MR E11", "SpacingBetweenSlices": 3.3, "StationName": "AWP166182", "TaskName": "pictures", "TotalReadoutTime": 0.0340202, "TxRefAmp": 262.159, "dcmmeta_affine": [[-2.9966812133789062, -0.0617249421775341, -0.13953649997711182, 98.4228744506836], [-0.061943650245666504, 2.9993579387664795, 0.004250572063028812, -96.64440155029297], [-0.12674470245838165, -0.0064790938049554825, 3.297045946121216, -95.61128997802734], [0.0, 0.0, 0.0, 1.0]], "dcmmeta_reorient_transform": [[0.0, -1.0, 0.0, 63.0], [1.0, 0.0, 0.0, 0.0], [0.0, 0.0, 1.0, 0.0], [0.0, 0.0, 0.0, 1.0]], "dcmmeta_shape": [64, 64, 36, 510], "dcmmeta_slice_dim": 2, "dcmmeta_version": 0.6, "global": {"const": {"AcquisitionMatrix": [64, 0, 0, 64], "AngioFlag": "N", "BitsAllocated": 16, "BitsStored": 12, "BodyPartExamined": "BRAIN", "Columns": 384, "EchoNumbers": 1, "EchoTime": 32.0, "EchoTrainLength": 64, "FlipAngle": 40.0, "HighBit": 11, "ImageOrientationPatient": [0.99889376388014, 0.02064788291051, -0.0422482356163, -0.0205749812089, 0.99978598002415, 0.00215969798998], "ImagePositionPatient": [-564.12721564945, -582.12340398606, -76.776975654867], "ImageType": ["ORIGINAL", "PRIMARY", "M", "ND", "NORM", "MOSAIC"], "ImagedNucleus": "1H", "ImagingFrequency": 123.255628, "InPlanePhaseEncodingDirection": "COL", "MRAcquisitionType": "2D", "MagneticFieldStrength": 3.0, "Manufacturer": "SIEMENS", "ManufacturerModelName": "Prisma", "Modality": "MR", "NumberOfAverages": 1.0, "NumberOfPhaseEncodingSteps": 64, "PercentPhaseFieldOfView": 100.0, "PercentSampling": 100.0, "PerformedProcedureStepStartTime": "102906.467000", "PhotometricInterpretation": "MONOCHROME2", "PixelBandwidth": 2300.0, "PixelRepresentation": 0, "PixelSpacing": [3.0, 3.0], "ProtocolName": "cmrr_mbep2d_Pictures_AP_RDS", "RepetitionTime": 610.0, "Rows": 384, "SAR": 0.46446221459549, "SamplesPerPixel": 1, "ScanOptions": "FS", "ScanningSequence": "EP", "SequenceName": "*epfid2d1_64", "SequenceVariant": "SK", "SeriesDescription": "cmrr_mbep2d_Pictures_AP_RDS", "SeriesNumber": 8, "SeriesTime": "104504.233000", "SliceLocation": -99.811875316207, "SliceThickness": 3.0, "SmallestImagePixelValue": 0, "SoftwareVersions": "syngo MR E11", "SpacingBetweenSlices": 3.2999999970156, "SpecificCharacterSet": "ISO_IR 100", "StudyID": "1", "StudyTime": "102906.289000", "TransmitCoilName": "Body", "VariableFlipAngleFlag": "N", "WindowCenterWidthExplanation": "Algo1"}, "slices": {}}, "time": {"samples": {"AcquisitionNumber": [1, 2, 3, 4, 5, 6, 7, 8, 9, 10, 11, 12, 13, 14, 15, 16, 17, 18, 19, 20, 21, 22, 23, 24, 25, 26, 27, 28, 29, 30, 31, 32, 33, 34, 35, 36, 37, 38, 39, 40, 41, 42, 43, 44, 45, 46, 47, 48, 49, 50, 51, 52, 53, 54, 55, 56, 57, 58, 59, 60, 61, 62, 63, 64, 65, 66, 67, 68, 69, 70, 71, 72, 73, 74, 75, 76, 77, 78, 79, 80, 81, 82, 83, 84, 85, 86, 87, 88, 89, 90, 91, 92, 93, 94, 95, 96, 97, 98, 99, 100, 101, 102, 103, 104, 105, 106, 107, 108, 109, 110, 111, 112, 113, 114, 115, 116, 117, 118, 119, 120, 121, 122, 123, 124, 125, 126, 127, 128, 129, 130, 131, 132, 133, 134, 135, 136, 137, 138, 139, 140, 141, 142, 143, 144, 145, 146, 147, 148, 149, 150, 151, 152, 153, 154, 155, 156, 157, 158, 159, 160, 161, 162, 163, 164, 165, 166, 167, 168, 169, 170, 171, 172, 173, 174, 175, 176, 177, 178, 179, 180, 181, 182, 183, 184, 185, 186, 187, 188, 189, 190, 191, 192, 193, 194, 195, 196, 197, 198, 199, 200, 201, 202, 203, 204, 205, 206, 207, 208, 209, 210, 211, 212, 213, 214, 215, 216, 217, 218, 219, 220, 221, 222, 223, 224, 225, 226, 227, 228, 229, 230, 231, 232, 233, 234, 235, 236, 237, 238, 239, 240, 241, 242, 243, 244, 245, 246, 247, 248, 249, 250, 251, 252, 253, 254, 255, 256, 257, 258, 259, 260, 261, 262, 263, 264, 265, 266, 267, 268, 269, 270, 271, 272, 273, 274, 275, 276, 277, 278, 279, 280, 281, 282, 283, 284, 285, 286, 287, 288, 289, 290, 291, 292, 293, 294, 295, 296, 297, 298, 299, 300, 301, 302, 303, 304, 305, 306, 307, 308, 309, 310, 311, 312, 313, 314, 315, 316, 317, 318, 319, 320, 321, 322, 323, 324, 325, 326, 327, 328, 329, 330, 331, 332, 333, 334, 335, 336, 337, 338, 339, 340, 341, 342, 343, 344, 345, 346, 347, 348, 349, 350, 351, 352, 353, 354, 355, 356, 357, 358, 359, 360, 361, 362, 363, 364, 365, 366, 367, 368, 369, 370, 371, 372, 373, 374, 375, 376, 377, 378, 379, 380, 381, 382, 383, 384, 385, 386, 387, 388, 389, 390, 391, 392, 393, 394, 395, 396, 397, 398, 399, 400, 401, 402, 403, 404, 405, 406, 407, 408, 409, 410, 411, 412, 413, 414, 415, 416, 417, 418, 419, 420, 421, 422, 423, 424, 425, 426, 427, 428, 429, 430, 431, 432, 433, 434, 435, 436, 437, 438, 439, 440, 441, 442, 443, 444, 445, 446, 447, 448, 449, 450, 451, 452, 453, 454, 455, 456, 457, 458, 459, 460, 461, 462, 463, 464, 465, 466, 467, 468, 469, 470, 471, 472, 473, 474, 475, 476, 477, 478, 479, 480, 481, 482, 483, 484, 485, 486, 487, 488, 489, 490, 491, 492, 493, 494, 495, 496, 497, 498, 499, 500, 501, 502, 503, 504, 505, 506, 507, 508, 509, 510], "AcquisitionTime": ["104439.700000", "104440.310000", "104440.920000", "104441.530000", "104442.140000", "104442.750000", "104443.360000", "104443.970000", "104444.580000", "104445.190000", "104445.800000", "104446.410000", "104447.020000", "104447.630000", "104448.240000", "104448.850000", "104449.460000", "104450.070000", "104450.680000", "104451.290000", "104451.900000", "104452.510000", "104453.120000", "104453.730000", "104454.340000", "104454.950000", "104455.560000", "104456.170000", "104456.780000", "104457.390000", "104458.000000", "104458.610000", "104459.220000", "104459.830000", "104500.440000", "104501.050000", "104501.660000", "104502.270000", "104502.880000", "104503.490000", "104504.100000", "104504.710000", "104505.320000", "104505.930000", "104506.540000", "104507.150000", "104507.760000", "104508.370000", "104508.980000", "104509.590000", "104510.200000", "104510.810000", "104511.420000", "104512.030000", "104512.640000", "104513.250000", "104513.860000", "104514.470000", "104515.080000", "104515.690000", "104516.300000", "104516.910000", "104517.520000", "104518.130000", "104518.740000", "104519.350000", "104519.960000", "104520.570000", "104521.180000", "104521.790000", "104522.400000", "104523.010000", "104523.620000", "104524.230000", "104524.840000", "104525.450000", "104526.060000", "104526.670000", "104527.280000", "104527.890000", "104528.500000", "104529.110000", "104529.720000", "104530.330000", "104530.940000", "104531.550000", "104532.160000", "104532.770000", "104533.380000", "104533.990000", "104534.600000", "104535.210000", "104535.820000", "104536.430000", "104537.040000", "104537.650000", "104538.260000", "104538.870000", "104539.480000", "104540.090000", "104540.700000", "104541.310000", "104541.920000", "104542.530000", "104543.140000", "104543.750000", "104544.360000", "104544.970000", "104545.580000", "104546.190000", "104546.800000", "104547.410000", "104548.020000", "104548.630000", "104549.240000", "104549.850000", "104550.460000", "104551.070000", "104551.680000", "104552.290000", "104552.900000", "104553.510000", "104554.120000", "104554.730000", "104555.340000", "104555.950000", "104556.560000", "104557.170000", "104557.780000", "104558.390000", "104559.000000", "104559.610000", "104600.220000", "104600.830000", "104601.440000", "104602.050000", "104602.660000", "104603.270000", "104603.880000", "104604.490000", "104605.100000", "104605.710000", "104606.320000", "104606.930000", "104607.540000", "104608.150000", "104608.760000", "104609.370000", "104609.980000", "104610.590000", "104611.200000", "104611.810000", "104612.420000", "104613.030000", "104613.640000", "104614.250000", "104614.860000", "104615.470000", "104616.080000", "104616.690000", "104617.300000", "104617.910000", "104618.520000", "104619.130000", "104619.740000", "104620.350000", "104620.960000", "104621.570000", "104622.180000", "104622.790000", "104623.400000", "104624.010000", "104624.620000", "104625.230000", "104625.840000", "104626.450000", "104627.060000", "104627.670000", "104628.280000", "104628.890000", "104629.500000", "104630.110000", "104630.720000", "104631.330000", "104631.940000", "104632.550000", "104633.160000", "104633.770000", "104634.380000", "104634.990000", "104635.600000", "104636.210000", "104636.820000", "104637.430000", "104638.040000", "104638.650000", "104639.260000", "104639.870000", "104640.480000", "104641.090000", "104641.700000", "104642.310000", "104642.920000", "104643.530000", "104644.140000", "104644.750000", "104645.360000", "104645.970000", "104646.580000", "104647.190000", "104647.800000", "104648.410000", "104649.020000", "104649.630000", "104650.240000", "104650.850000", "104651.460000", "104652.070000", "104652.680000", "104653.290000", "104653.900000", "104654.510000", "104655.120000", "104655.730000", "104656.340000", "104656.950000", "104657.560000", "104658.170000", "104658.780000", "104659.390000", "104700.000000", "104700.610000", "104701.220000", "104701.830000", "104702.440000", "104703.050000", "104703.660000", "104704.270000", "104704.880000", "104705.490000", "104706.100000", "104706.710000", "104707.320000", "104707.930000", "104708.540000", "104709.150000", "104709.760000", "104710.370000", "104710.980000", "104711.590000", "104712.200000", "104712.810000", "104713.420000", "104714.030000", "104714.640000", "104715.250000", "104715.860000", "104716.470000", "104717.080000", "104717.690000", "104718.300000", "104718.910000", "104719.520000", "104720.130000", "104720.740000", "104721.350000", "104721.960000", "104722.570000", "104723.180000", "104723.790000", "104724.400000", "104725.010000", "104725.620000", "104726.230000", "104726.840000", "104727.450000", "104728.060000", "104728.670000", "104729.280000", "104729.890000", "104730.500000", "104731.110000", "104731.720000", "104732.330000", "104732.940000", "104733.550000", "104734.160000", "104734.770000", "104735.380000", "104735.990000", "104736.600000", "104737.210000", "104737.820000", "104738.430000", "104739.040000", "104739.650000", "104740.260000", "104740.870000", "104741.480000", "104742.090000", "104742.700000", "104743.310000", "104743.920000", "104744.530000", "104745.140000", "104745.750000", "104746.360000", "104746.970000", "104747.580000", "104748.190000", "104748.800000", "104749.410000", "104750.020000", "104750.630000", "104751.240000", "104751.850000", "104752.460000", "104753.070000", "104753.680000", "104754.290000", "104754.900000", "104755.510000", "104756.120000", "104756.730000", "104757.340000", "104757.950000", "104758.560000", "104759.170000", "104759.780000", "104800.390000", "104801.000000", "104801.610000", "104802.220000", "104802.830000", "104803.440000", "104804.050000", "104804.660000", "104805.270000", "104805.880000", "104806.490000", "104807.100000", "104807.710000", "104808.320000", "104808.930000", "104809.540000", "104810.150000", "104810.760000", "104811.370000", "104811.980000", "104812.590000", "104813.200000", "104813.810000", "104814.420000", "104815.030000", "104815.640000", "104816.250000", "104816.860000", "104817.470000", "104818.080000", "104818.690000", "104819.300000", "104819.910000", "104820.520000", "104821.130000", "104821.740000", "104822.350000", "104822.960000", "104823.570000", "104824.180000", "104824.790000", "104825.400000", "104826.010000", "104826.620000", "104827.230000", "104827.840000", "104828.450000", "104829.060000", "104829.670000", "104830.280000", "104830.890000", "104831.500000", "104832.110000", "104832.720000", "104833.330000", "104833.940000", "104834.550000", "104835.160000", "104835.770000", "104836.380000", "104836.990000", "104837.600000", "104838.210000", "104838.820000", "104839.430000", "104840.040000", "104840.650000", "104841.260000", "104841.870000", "104842.480000", "104843.090000", "104843.700000", "104844.310000", "104844.920000", "104845.530000", "104846.140000", "104846.750000", "104847.360000", "104847.970000", "104848.580000", "104849.190000", "104849.800000", "104850.410000", "104851.020000", "104851.630000", "104852.240000", "104852.850000", "104853.460000", "104854.070000", "104854.680000", "104855.290000", "104855.900000", "104856.510000", "104857.120000", "104857.730000", "104858.340000", "104858.950000", "104859.560000", "104900.170000", "104900.780000", "104901.390000", "104902.000000", "104902.610000", "104903.220000", "104903.830000", "104904.440000", "104905.050000", "104905.660000", "104906.270000", "104906.880000", "104907.490000", "104908.100000", "104908.710000", "104909.320000", "104909.930000", "104910.540000", "104911.150000", "104911.760000", "104912.370000", "104912.980000", "104913.590000", "104914.200000", "104914.810000", "104915.420000", "104916.030000", "104916.640000", "104917.250000", "104917.860000", "104918.470000", "104919.080000", "104919.690000", "104920.300000", "104920.910000", "104921.520000", "104922.130000", "104922.740000", "104923.350000", "104923.960000", "104924.570000", "104925.180000", "104925.790000", "104926.400000", "104927.010000", "104927.620000", "104928.230000", "104928.840000", "104929.450000", "104930.060000", "104930.670000", "104931.280000", "104931.890000", "104932.500000", "104933.110000", "104933.720000", "104934.330000", "104934.940000", "104935.550000", "104936.160000", "104936.770000", "104937.380000", "104937.990000", "104938.600000", "104939.210000", "104939.820000", "104940.430000", "104941.040000", "104941.650000", "104942.260000", "104942.870000", "104943.480000", "104944.090000", "104944.700000", "104945.310000", "104945.920000", "104946.530000", "104947.140000", "104947.750000", "104948.360000", "104948.970000", "104949.580000", "104950.190000"], "ContentTime": ["104504.236000", "104504.239000", "104504.241000", "104504.244000", "104504.246000", "104504.249000", "104504.251000", "104504.253000", "104504.256000", "104504.258000", "104504.260000", "104504.270000", "104504.272000", "104504.275000", "104504.277000", "104504.280000", "104504.282000", "104504.286000", "104504.289000", "104504.291000", "104504.294000", "104504.296000", "104504.299000", "104504.301000", "104504.303000", "104504.306000", "104504.308000", "104504.311000", "104504.313000", "104504.315000", "104504.318000", "104504.320000", "104504.322000", "104504.325000", "104504.327000", "104504.329000", "104504.332000", "104504.334000", "104504.337000", "104504.339000", "104524.231000", "104524.234000", "104524.236000", "104524.246000", "104524.248000", "104524.251000", "104524.253000", "104524.261000", "104524.263000", "104524.266000", "104524.268000", "104524.271000", "104524.273000", "104524.276000", "104524.278000", "104524.280000", "104524.283000", "104524.285000", "104524.287000", "104524.290000", "104524.292000", "104524.294000", "104524.297000", "104524.299000", "104524.302000", "104524.304000", "104524.307000", "104524.309000", "104524.311000", "104524.314000", "104524.316000", "104524.319000", "104524.321000", "104544.231000", "104544.234000", "104544.236000", "104544.239000", "104544.241000", "104544.244000", "104544.246000", "104544.248000", "104544.251000", "104544.254000", "104544.257000", "104544.259000", "104544.262000", "104544.264000", "104544.266000", "104544.276000", "104544.279000", "104544.281000", "104544.284000", "104544.286000", "104544.289000", "104544.291000", "104544.294000", "104544.296000", "104544.298000", "104544.301000", "104544.303000", "104544.306000", "104544.308000", "104544.311000", "104544.313000", "104544.315000", "104604.232000", "104604.244000", "104604.246000", "104604.249000", "104604.251000", "104604.254000", "104604.256000", "104604.258000", "104604.261000", "104604.263000", "104604.266000", "104604.268000", "104604.282000", "104604.284000", "104604.287000", "104604.289000", "104604.291000", "104604.294000", "104604.296000", "104604.299000", "104604.301000", "104604.304000", "104604.306000", "104604.309000", "104604.311000", "104604.313000", "104604.316000", "104604.318000", "104604.321000", "104604.323000", "104604.325000", "104604.328000", "104604.330000", "104624.231000", "104624.234000", "104624.236000", "104624.239000", "104624.241000", "104624.243000", "104624.246000", "104624.248000", "104624.251000", "104624.253000", "104624.256000", "104624.258000", "104624.261000", "104624.263000", "104624.266000", "104624.268000", "104624.271000", "104624.273000", "104624.276000", "104624.278000", "104624.280000", "104624.283000", "104624.285000", "104624.287000", "104624.290000", "104624.292000", "104624.295000", "104624.297000", "104624.299000", "104624.302000", "104624.304000", "104624.307000", "104624.309000", "104644.231000", "104644.234000", "104644.236000", "104644.239000", "104644.241000", "104644.244000", "104644.246000", "104644.249000", "104644.251000", "104644.253000", "104644.256000", "104644.258000", "104644.261000", "104644.263000", "104644.266000", "104644.268000", "104644.270000", "104644.273000", "104644.276000", "104644.278000", "104644.280000", "104644.283000", "104644.285000", "104644.288000", "104644.290000", "104644.292000", "104644.295000", "104644.297000", "104644.300000", "104644.302000", "104644.305000", "104644.307000", "104644.309000", "104704.231000", "104704.234000", "104704.236000", "104704.238000", "104704.247000", "104704.249000", "104704.251000", "104704.254000", "104704.256000", "104704.258000", "104704.261000", "104704.263000", "104704.266000", "104704.268000", "104704.270000", "104704.273000", "104704.275000", "104704.277000", "104704.280000", "104704.282000", "104704.285000", "104704.287000", "104704.289000", "104704.297000", "104704.299000", "104704.302000", "104704.304000", "104704.306000", "104704.309000", "104704.311000", "104704.314000", "104704.316000", "104704.318000", "104724.231000", "104724.234000", "104724.236000", "104724.239000", "104724.241000", "104724.243000", "104724.246000", "104724.248000", "104724.250000", "104724.253000", "104724.255000", "104724.257000", "104724.260000", "104724.272000", "104724.275000", "104724.277000", "104724.279000", "104724.282000", "104724.284000", "104724.287000", "104724.289000", "104724.291000", "104724.294000", "104724.296000", "104724.299000", "104724.301000", "104724.304000", "104724.306000", "104724.308000", "104724.311000", "104724.313000", "104724.315000", "104744.231000", "104744.234000", "104744.236000", "104744.239000", "104744.248000", "104744.250000", "104744.253000", "104744.255000", "104744.258000", "104744.260000", "104744.263000", "104744.266000", "104744.268000", "104744.271000", "104744.273000", "104744.275000", "104744.278000", "104744.280000", "104744.283000", "104744.285000", "104744.287000", "104744.290000", "104744.292000", "104744.294000", "104744.297000", "104744.299000", "104744.301000", "104744.304000", "104744.306000", "104744.309000", "104744.311000", "104744.313000", "104744.316000", "104804.231000", "104804.234000", "104804.236000", "104804.239000", "104804.241000", "104804.244000", "104804.246000", "104804.248000", "104804.251000", "104804.253000", "104804.255000", "104804.258000", "104804.260000", "104804.263000", "104804.265000", "104804.267000", "104804.270000", "104804.272000", "104804.275000", "104804.277000", "104804.279000", "104804.282000", "104804.284000", "104804.287000", "104804.289000", "104804.292000", "104804.294000", "104804.296000", "104804.299000", "104804.301000", "104804.304000", "104804.306000", "104804.309000", "104824.231000", "104824.234000", "104824.236000", "104824.239000", "104824.241000", "104824.243000", "104824.246000", "104824.248000", "104824.251000", "104824.253000", "104824.255000", "104824.258000", "104824.260000", "104824.262000", "104824.265000", "104824.267000", "104824.269000", "104824.272000", "104824.274000", "104824.277000", "104824.279000", "104824.281000", "104824.284000", "104824.286000", "104824.289000", "104824.291000", "104824.294000", "104824.296000", "104824.299000", "104824.301000", "104824.303000", "104824.306000", "104824.308000", "104844.231000", "104844.234000", "104844.236000", "104844.239000", "104844.241000", "104844.243000", "104844.246000", "104844.248000", "104844.251000", "104844.253000", "104844.255000", "104844.258000", "104844.260000", "104844.263000", "104844.265000", "104844.267000", "104844.270000", "104844.272000", "104844.274000", "104844.277000", "104844.279000", "104844.281000", "104844.284000", "104844.286000", "104844.289000", "104844.300000", "104844.303000", "104844.305000", "104844.307000", "104844.310000", "104844.312000", "104844.315000", "104844.317000", "104904.231000", "104904.234000", "104904.236000", "104904.239000", "104904.241000", "104904.243000", "104904.246000", "104904.248000", "104904.250000", "104904.253000", "104904.255000", "104904.258000", "104904.260000", "104904.262000", "104904.265000", "104904.267000", "104904.269000", "104904.272000", "104904.274000", "104904.277000", "104904.279000", "104904.281000", "104904.284000", "104904.286000", "104904.288000", "104904.291000", "104904.293000", "104904.295000", "104904.304000", "104904.307000", "104904.309000", "104904.312000", "104924.231000", "104924.234000", "104924.236000", "104924.239000", "104924.241000", "104924.244000", "104924.246000", "104924.248000", "104924.251000", "104924.253000", "104924.256000", "104924.258000", "104924.261000", "104924.263000", "104924.265000", "104924.268000", "104924.270000", "104924.273000", "104924.275000", "104924.277000", "104924.280000", "104924.282000", "104924.285000", "104924.287000", "104924.289000", "104924.292000", "104924.294000", "104924.296000", "104924.299000", "104924.302000", "104924.305000", "104924.307000", "104924.310000", "104944.231000", "104944.234000", "104944.236000", "104944.239000", "104944.241000", "104944.244000", "104944.246000", "104944.249000", "104944.251000", "104944.253000", "104944.256000", "104944.258000", "104944.261000", "104944.263000", "104944.265000", "104944.268000", "104944.270000", "104944.273000", "104944.275000", "104944.278000", "104944.280000", "104944.282000", "104944.285000", "104944.287000", "104944.290000", "104944.292000", "104944.294000", "104944.297000", "104944.299000", "104944.301000", "104944.304000", "104944.306000", "104944.309000", "104950.660000", "104950.663000", "104950.665000", "104950.668000", "104950.670000", "104950.672000", "104950.675000", "104950.677000", "104950.679000", "104950.682000", "104950.684000"], "InstanceCreationTime": ["104504.236000", "104504.239000", "104504.241000", "104504.244000", "104504.246000", "104504.249000", "104504.251000", "104504.253000", "104504.256000", "104504.258000", "104504.260000", "104504.270000", "104504.272000", "104504.275000", "104504.277000", "104504.280000", "104504.282000", "104504.286000", "104504.289000", "104504.291000", "104504.294000", "104504.296000", "104504.299000", "104504.301000", "104504.303000", "104504.306000", "104504.308000", "104504.311000", "104504.313000", "104504.315000", "104504.318000", "104504.320000", "104504.322000", "104504.325000", "104504.327000", "104504.329000", "104504.332000", "104504.334000", "104504.337000", "104504.339000", "104524.231000", "104524.234000", "104524.236000", "104524.246000", "104524.248000", "104524.251000", "104524.253000", "104524.261000", "104524.263000", "104524.266000", "104524.268000", "104524.271000", "104524.273000", "104524.276000", "104524.278000", "104524.280000", "104524.283000", "104524.285000", "104524.287000", "104524.290000", "104524.292000", "104524.294000", "104524.297000", "104524.299000", "104524.302000", "104524.304000", "104524.307000", "104524.309000", "104524.311000", "104524.314000", "104524.316000", "104524.319000", "104524.321000", "104544.231000", "104544.234000", "104544.236000", "104544.239000", "104544.241000", "104544.244000", "104544.246000", "104544.248000", "104544.251000", "104544.254000", "104544.257000", "104544.259000", "104544.262000", "104544.264000", "104544.266000", "104544.276000", "104544.279000", "104544.281000", "104544.284000", "104544.286000", "104544.289000", "104544.291000", "104544.294000", "104544.296000", "104544.298000", "104544.301000", "104544.303000", "104544.306000", "104544.308000", "104544.311000", "104544.313000", "104544.315000", "104604.232000", "104604.244000", "104604.246000", "104604.249000", "104604.251000", "104604.254000", "104604.256000", "104604.258000", "104604.261000", "104604.263000", "104604.266000", "104604.268000", "104604.282000", "104604.284000", "104604.287000", "104604.289000", "104604.291000", "104604.294000", "104604.296000", "104604.299000", "104604.301000", "104604.304000", "104604.306000", "104604.309000", "104604.311000", "104604.313000", "104604.316000", "104604.318000", "104604.321000", "104604.323000", "104604.325000", "104604.328000", "104604.330000", "104624.231000", "104624.234000", "104624.236000", "104624.239000", "104624.241000", "104624.243000", "104624.246000", "104624.248000", "104624.251000", "104624.253000", "104624.256000", "104624.258000", "104624.261000", "104624.263000", "104624.266000", "104624.268000", "104624.271000", "104624.273000", "104624.276000", "104624.278000", "104624.280000", "104624.283000", "104624.285000", "104624.287000", "104624.290000", "104624.292000", "104624.295000", "104624.297000", "104624.299000", "104624.302000", "104624.304000", "104624.307000", "104624.309000", "104644.231000", "104644.234000", "104644.236000", "104644.239000", "104644.241000", "104644.244000", "104644.246000", "104644.249000", "104644.251000", "104644.253000", "104644.256000", "104644.258000", "104644.261000", "104644.263000", "104644.266000", "104644.268000", "104644.270000", "104644.273000", "104644.276000", "104644.278000", "104644.280000", "104644.283000", "104644.285000", "104644.288000", "104644.290000", "104644.292000", "104644.295000", "104644.297000", "104644.300000", "104644.302000", "104644.305000", "104644.307000", "104644.309000", "104704.231000", "104704.234000", "104704.236000", "104704.238000", "104704.247000", "104704.249000", "104704.251000", "104704.254000", "104704.256000", "104704.258000", "104704.261000", "104704.263000", "104704.266000", "104704.268000", "104704.270000", "104704.273000", "104704.275000", "104704.277000", "104704.280000", "104704.282000", "104704.285000", "104704.287000", "104704.289000", "104704.297000", "104704.299000", "104704.302000", "104704.304000", "104704.306000", "104704.309000", "104704.311000", "104704.314000", "104704.316000", "104704.318000", "104724.231000", "104724.234000", "104724.236000", "104724.239000", "104724.241000", "104724.243000", "104724.246000", "104724.248000", "104724.250000", "104724.253000", "104724.255000", "104724.257000", "104724.260000", "104724.272000", "104724.275000", "104724.277000", "104724.279000", "104724.282000", "104724.284000", "104724.287000", "104724.289000", "104724.291000", "104724.294000", "104724.296000", "104724.299000", "104724.301000", "104724.304000", "104724.306000", "104724.308000", "104724.311000", "104724.313000", "104724.315000", "104744.231000", "104744.234000", "104744.236000", "104744.239000", "104744.248000", "104744.250000", "104744.253000", "104744.255000", "104744.258000", "104744.260000", "104744.263000", "104744.266000", "104744.268000", "104744.271000", "104744.273000", "104744.275000", "104744.278000", "104744.280000", "104744.283000", "104744.285000", "104744.287000", "104744.290000", "104744.292000", "104744.294000", "104744.297000", "104744.299000", "104744.301000", "104744.304000", "104744.306000", "104744.309000", "104744.311000", "104744.313000", "104744.316000", "104804.231000", "104804.234000", "104804.236000", "104804.239000", "104804.241000", "104804.244000", "104804.246000", "104804.248000", "104804.251000", "104804.253000", "104804.255000", "104804.258000", "104804.260000", "104804.263000", "104804.265000", "104804.267000", "104804.270000", "104804.272000