{"AcquisitionMatrixPE": 64, "AcquisitionNumber": 1, "AcquisitionTime": "14:45:49.702500", "BandwidthPerPixelPhaseEncode": 28.935, "BaseResolution": 64, "BodyPartExamined": "BRAIN", "CoilCombinationMethod": "Sum of Squares", "ConsistencyInfo": "N4_VE11E_LATEST_20181129", "ConversionSoftware": "dcm2niix", "ConversionSoftwareVersion": "v1.0.20230411", "DerivedVendorReportedEchoSpacing": 0.000540003, "DeviceSerialNumber": "166182", "DwellTime": 3.4e-06, "EchoTime": 0.032, "EchoTrainLength": 64, "EffectiveEchoSpacing": 0.000540003, "FlipAngle": 40, "HeudiconvVersion": "0.13.1", "ImageOrientationPatientDICOM": [0.998487, 0.0494176, -0.0241238, -0.0505812, 0.997454, -0.0502755], "ImageOrientationText": "Tra>Cor(-2.9)>Sag(-1.2)", "ImageType": ["ORIGINAL", "PRIMARY", "M", "ND", "NORM", "MOSAIC"], "ImagingFrequency": 123.257315, "InPlanePhaseEncodingDirectionDICOM": "COL", "InstitutionAddress": "PEARSE STREET .,City,District,IE,D2", "InstitutionName": "TCIN", "InstitutionalDepartmentName": "MRI", "MRAcquisitionType": "2D", "MagneticFieldStrength": 3, "Manufacturer": "Siemens", "ManufacturersModelName": "Prisma", "Modality": "MR", "MultibandAccelerationFactor": 4, "NonlinearGradientCorrection": false, "PartialFourier": 1, "PatientPosition": "HFS", "PercentPhaseFOV": 100, "PercentSampling": 100, "PhaseEncodingDirection": "j-", "PhaseEncodingSteps": 64, "PhaseResolution": 1, "PixelBandwidth": 2300, "ProcedureStepDescription": "Rhodri^Head BOLD", "ProtocolName": "cmrr_mbep2d_bold_Pictures_AP", "PulseSequenceDetails": "%SiemensSeq%\\ep2d_bold", "ReceiveCoilActiveElements": "HC2,4,6,7;SC", "ReceiveCoilName": "HeadNeck_64", "ReconMatrixPE": 64, "RefLinesPE": 12, "RepetitionTime": 0.61, "SAR": 0.241223, "ScanOptions": "FS", "ScanningSequence": "EP", "SequenceName": "*epfid2d1_64", "SequenceVariant": "SK", "SeriesDescription": "cmrr_mbep2d_bold_Pictures_AP", "SeriesNumber": 10, "ShimSetting": [-3597, -7372, 3937, 817, -136, 387, 115, -27], "SliceThickness": 3, "SliceTiming": [0.26, 0, 0.3275, 0.065, 0.3925, 0.13, 0.4575, 0.195, 0.5225, 0.26, 0, 0.3275, 0.065, 0.3925, 0.13, 0.4575, 0.195, 0.5225, 0.26, 0, 0.3275, 0.065, 0.3925, 0.13, 0.4575, 0.195, 0.5225, 0.26, 0, 0.3275, 0.065, 0.3925, 0.13, 0.4575, 0.195, 0.5225], "SoftwareVersions": "syngo MR E11", "SpacingBetweenSlices": 3.3, "StationName": "AWP166182", "TaskName": "pictures", "TotalReadoutTime": 0.0340202, "TxRefAmp": 234.246, "dcmmeta_affine": [[-2.9954605102539062, -0.1517435610294342, -0.07120715081691742, 101.18449401855469], [-0.1482529193162918, 2.992361068725586, -0.16968485713005066, -96.64900970458984], [-0.07237154245376587, 0.150826558470726, 3.294865131378174, -95.88567352294922], [0.0, 0.0, 0.0, 1.0]], "dcmmeta_reorient_transform": [[0.0, -1.0, 0.0, 63.0], [1.0, 0.0, 0.0, 0.0], [0.0, 0.0, 1.0, 0.0], [0.0, 0.0, 0.0, 1.0]], "dcmmeta_shape": [64, 64, 36, 510], "dcmmeta_slice_dim": 2, "dcmmeta_version": 0.6, "global": {"const": {"AcquisitionMatrix": [64, 0, 0, 64], "AngioFlag": "N", "BitsAllocated": 16, "BitsStored": 12, "BodyPartExamined": "BRAIN", "Columns": 384, "EchoNumbers": 1, "EchoTime": 32.0, "EchoTrainLength": 64, "FlipAngle": 40.0, "HighBit": 11, "ImageOrientationPatient": [0.99848682351424, 0.04941764095565, -0.0241238477614, -0.0505811867983, 0.99745371618276, -0.0502755170564], "ImagePositionPatient": [-546.61935908351, -594.36799410369, -50.671905806334], "ImageType": ["ORIGINAL", "PRIMARY", "M", "ND", "NORM", "MOSAIC"], "ImagedNucleus": "1H", "ImagingFrequency": 123.257315, "InPlanePhaseEncodingDirection": "COL", "MRAcquisitionType": "2D", "MagneticFieldStrength": 3.0, "Manufacturer": "SIEMENS", "ManufacturerModelName": "Prisma", "Modality": "MR", "NumberOfAverages": 1.0, "NumberOfPhaseEncodingSteps": 64, "PercentPhaseFieldOfView": 100.0, "PercentSampling": 100.0, "PerformedProcedureStepStartTime": "143000.053000", "PhotometricInterpretation": "MONOCHROME2", "PixelBandwidth": 2300.0, "PixelRepresentation": 0, "PixelSpacing": [3.0, 3.0], "ProtocolName": "cmrr_mbep2d_bold_Pictures_AP", "RepetitionTime": 610.0, "Rows": 384, "SAR": 0.24122304407709, "SamplesPerPixel": 1, "ScanOptions": "FS", "ScanningSequence": "EP", "SequenceName": "*epfid2d1_64", "SequenceVariant": "SK", "SeriesDescription": "cmrr_mbep2d_bold_Pictures_AP", "SeriesNumber": 10, "SeriesTime": "144613.862000", "SliceLocation": -92.950167876069, "SliceThickness": 3.0, "SmallestImagePixelValue": 0, "SoftwareVersions": "syngo MR E11", "SpacingBetweenSlices": 3.3000000133501, "SpecificCharacterSet": "ISO_IR 100", "StudyID": "1", "StudyTime": "142959.961000", "TransmitCoilName": "Body", "VariableFlipAngleFlag": "N", "WindowCenterWidthExplanation": "Algo1"}, "slices": {}}, "time": {"samples": {"AcquisitionNumber": [1, 2, 3, 4, 5, 6, 7, 8, 9, 10, 11, 12, 13, 14, 15, 16, 17, 18, 19, 20, 21, 22, 23, 24, 25, 26, 27, 28, 29, 30, 31, 32, 33, 34, 35, 36, 37, 38, 39, 40, 41, 42, 43, 44, 45, 46, 47, 48, 49, 50, 51, 52, 53, 54, 55, 56, 57, 58, 59, 60, 61, 62, 63, 64, 65, 66, 67, 68, 69, 70, 71, 72, 73, 74, 75, 76, 77, 78, 79, 80, 81, 82, 83, 84, 85, 86, 87, 88, 89, 90, 91, 92, 93, 94, 95, 96, 97, 98, 99, 100, 101, 102, 103, 104, 105, 106, 107, 108, 109, 110, 111, 112, 113, 114, 115, 116, 117, 118, 119, 120, 121, 122, 123, 124, 125, 126, 127, 128, 129, 130, 131, 132, 133, 134, 135, 136, 137, 138, 139, 140, 141, 142, 143, 144, 145, 146, 147, 148, 149, 150, 151, 152, 153, 154, 155, 156, 157, 158, 159, 160, 161, 162, 163, 164, 165, 166, 167, 168, 169, 170, 171, 172, 173, 174, 175, 176, 177, 178, 179, 180, 181, 182, 183, 184, 185, 186, 187, 188, 189, 190, 191, 192, 193, 194, 195, 196, 197, 198, 199, 200, 201, 202, 203, 204, 205, 206, 207, 208, 209, 210, 211, 212, 213, 214, 215, 216, 217, 218, 219, 220, 221, 222, 223, 224, 225, 226, 227, 228, 229, 230, 231, 232, 233, 234, 235, 236, 237, 238, 239, 240, 241, 242, 243, 244, 245, 246, 247, 248, 249, 250, 251, 252, 253, 254, 255, 256, 257, 258, 259, 260, 261, 262, 263, 264, 265, 266, 267, 268, 269, 270, 271, 272, 273, 274, 275, 276, 277, 278, 279, 280, 281, 282, 283, 284, 285, 286, 287, 288, 289, 290, 291, 292, 293, 294, 295, 296, 297, 298, 299, 300, 301, 302, 303, 304, 305, 306, 307, 308, 309, 310, 311, 312, 313, 314, 315, 316, 317, 318, 319, 320, 321, 322, 323, 324, 325, 326, 327, 328, 329, 330, 331, 332, 333, 334, 335, 336, 337, 338, 339, 340, 341, 342, 343, 344, 345, 346, 347, 348, 349, 350, 351, 352, 353, 354, 355, 356, 357, 358, 359, 360, 361, 362, 363, 364, 365, 366, 367, 368, 369, 370, 371, 372, 373, 374, 375, 376, 377, 378, 379, 380, 381, 382, 383, 384, 385, 386, 387, 388, 389, 390, 391, 392, 393, 394, 395, 396, 397, 398, 399, 400, 401, 402, 403, 404, 405, 406, 407, 408, 409, 410, 411, 412, 413, 414, 415, 416, 417, 418, 419, 420, 421, 422, 423, 424, 425, 426, 427, 428, 429, 430, 431, 432, 433, 434, 435, 436, 437, 438, 439, 440, 441, 442, 443, 444, 445, 446, 447, 448, 449, 450, 451, 452, 453, 454, 455, 456, 457, 458, 459, 460, 461, 462, 463, 464, 465, 466, 467, 468, 469, 470, 471, 472, 473, 474, 475, 476, 477, 478, 479, 480, 481, 482, 483, 484, 485, 486, 487, 488, 489, 490, 491, 492, 493, 494, 495, 496, 497, 498, 499, 500, 501, 502, 503, 504, 505, 506, 507, 508, 509, 510], "AcquisitionTime": ["144549.702500", "144550.312500", "144550.922500", "144551.532500", "144552.142500", "144552.752500", "144553.362500", "144553.972500", "144554.582500", "144555.192500", "144555.802500", "144556.412500", "144557.022500", "144557.632500", "144558.242500", "144558.852500", "144559.462500", "144600.072500", "144600.682500", "144601.292500", "144601.902500", "144602.512500", "144603.122500", "144603.732500", "144604.342500", "144604.952500", "144605.562500", "144606.172500", "144606.782500", "144607.392500", "144608.002500", "144608.612500", "144609.222500", "144609.832500", "144610.442500", "144611.052500", "144611.662500", "144612.272500", "144612.882500", "144613.492500", "144614.102500", "144614.712500", "144615.322500", "144615.932500", "144616.542500", "144617.152500", "144617.762500", "144618.372500", "144618.982500", "144619.592500", "144620.202500", "144620.812500", "144621.422500", "144622.032500", "144622.642500", "144623.252500", "144623.862500", "144624.472500", "144625.082500", "144625.692500", "144626.302500", "144626.912500", "144627.522500", "144628.132500", "144628.742500", "144629.352500", "144629.962500", "144630.572500", "144631.182500", "144631.792500", "144632.402500", "144633.012500", "144633.622500", "144634.232500", "144634.842500", "144635.452500", "144636.062500", "144636.672500", "144637.282500", "144637.892500", "144638.502500", "144639.112500", "144639.722500", "144640.332500", "144640.942500", "144641.552500", "144642.162500", "144642.772500", "144643.382500", "144643.992500", "144644.602500", "144645.212500", "144645.822500", "144646.432500", "144647.042500", "144647.652500", "144648.262500", "144648.872500", "144649.482500", "144650.092500", "144650.702500", "144651.312500", "144651.922500", "144652.532500", "144653.142500", "144653.752500", "144654.362500", "144654.972500", "144655.582500", "144656.192500", "144656.802500", "144657.412500", "144658.022500", "144658.632500", "144659.242500", "144659.852500", "144700.462500", "144701.072500", "144701.682500", "144702.292500", "144702.902500", "144703.512500", "144704.122500", "144704.732500", "144705.342500", "144705.952500", "144706.562500", "144707.172500", "144707.782500", "144708.392500", "144709.002500", "144709.612500", "144710.222500", "144710.832500", "144711.442500", "144712.052500", "144712.662500", "144713.272500", "144713.882500", "144714.492500", "144715.102500", "144715.712500", "144716.322500", "144716.932500", "144717.542500", "144718.152500", "144718.762500", "144719.372500", "144719.982500", "144720.592500", "144721.202500", "144721.812500", "144722.422500", "144723.032500", "144723.642500", "144724.252500", "144724.862500", "144725.472500", "144726.082500", "144726.692500", "144727.302500", "144727.912500", "144728.522500", "144729.132500", "144729.742500", "144730.352500", "144730.962500", "144731.572500", "144732.182500", "144732.792500", "144733.402500", "144734.012500", "144734.622500", "144735.232500", "144735.842500", "144736.452500", "144737.062500", "144737.672500", "144738.282500", "144738.892500", "144739.502500", "144740.112500", "144740.722500", "144741.332500", "144741.942500", "144742.552500", "144743.162500", "144743.772500", "144744.382500", "144744.992500", "144745.602500", "144746.212500", "144746.822500", "144747.432500", "144748.042500", "144748.652500", "144749.262500", "144749.872500", "144750.482500", "144751.092500", "144751.702500", "144752.312500", "144752.922500", "144753.532500", "144754.142500", "144754.752500", "144755.362500", "144755.972500", "144756.582500", "144757.192500", "144757.802500", "144758.412500", "144759.022500", "144759.632500", "144800.242500", "144800.852500", "144801.462500", "144802.072500", "144802.682500", "144803.292500", "144803.902500", "144804.512500", "144805.122500", "144805.732500", "144806.342500", "144806.952500", "144807.562500", "144808.172500", "144808.782500", "144809.392500", "144810.002500", "144810.612500", "144811.222500", "144811.832500", "144812.442500", "144813.052500", "144813.662500", "144814.272500", "144814.882500", "144815.492500", "144816.102500", "144816.712500", "144817.322500", "144817.932500", "144818.542500", "144819.152500", "144819.762500", "144820.372500", "144820.982500", "144821.592500", "144822.202500", "144822.812500", "144823.422500", "144824.032500", "144824.642500", "144825.252500", "144825.862500", "144826.472500", "144827.082500", "144827.692500", "144828.302500", "144828.912500", "144829.522500", "144830.132500", "144830.742500", "144831.352500", "144831.962500", "144832.572500", "144833.182500", "144833.792500", "144834.402500", "144835.012500", "144835.622500", "144836.232500", "144836.842500", "144837.452500", "144838.062500", "144838.672500", "144839.282500", "144839.892500", "144840.502500", "144841.112500", "144841.722500", "144842.332500", "144842.942500", "144843.552500", "144844.162500", "144844.772500", "144845.382500", "144845.992500", "144846.602500", "144847.212500", "144847.822500", "144848.432500", "144849.042500", "144849.652500", "144850.262500", "144850.872500", "144851.482500", "144852.092500", "144852.702500", "144853.312500", "144853.922500", "144854.532500", "144855.142500", "144855.752500", "144856.362500", "144856.972500", "144857.582500", "144858.192500", "144858.802500", "144859.412500", "144900.022500", "144900.632500", "144901.242500", "144901.852500", "144902.462500", "144903.072500", "144903.682500", "144904.292500", "144904.902500", "144905.512500", "144906.122500", "144906.732500", "144907.342500", "144907.952500", "144908.562500", "144909.172500", "144909.782500", "144910.392500", "144911.002500", "144911.612500", "144912.222500", "144912.832500", "144913.442500", "144914.052500", "144914.662500", "144915.272500", "144915.882500", "144916.492500", "144917.102500", "144917.712500", "144918.322500", "144918.932500", "144919.542500", "144920.152500", "144920.762500", "144921.372500", "144921.982500", "144922.592500", "144923.202500", "144923.812500", "144924.422500", "144925.032500", "144925.642500", "144926.252500", "144926.862500", "144927.472500", "144928.082500", "144928.692500", "144929.302500", "144929.912500", "144930.522500", "144931.132500", "144931.742500", "144932.352500", "144932.962500", "144933.572500", "144934.182500", "144934.792500", "144935.402500", "144936.012500", "144936.622500", "144937.232500", "144937.842500", "144938.452500", "144939.062500", "144939.672500", "144940.282500", "144940.892500", "144941.502500", "144942.112500", "144942.722500", "144943.332500", "144943.942500", "144944.552500", "144945.162500", "144945.772500", "144946.382500", "144946.992500", "144947.602500", "144948.212500", "144948.822500", "144949.432500", "144950.042500", "144950.652500", "144951.262500", "144951.872500", "144952.482500", "144953.092500", "144953.702500", "144954.312500", "144954.922500", "144955.532500", "144956.142500", "144956.752500", "144957.362500", "144957.972500", "144958.582500", "144959.192500", "144959.802500", "145000.412500", "145001.022500", "145001.632500", "145002.242500", "145002.852500", "145003.462500", "145004.072500", "145004.682500", "145005.292500", "145005.902500", "145006.512500", "145007.122500", "145007.732500", "145008.342500", "145008.952500", "145009.562500", "145010.172500", "145010.782500", "145011.392500", "145012.002500", "145012.612500", "145013.222500", "145013.832500", "145014.442500", "145015.052500", "145015.662500", "145016.272500", "145016.882500", "145017.492500", "145018.102500", "145018.712500", "145019.322500", "145019.932500", "145020.542500", "145021.152500", "145021.762500", "145022.372500", "145022.982500", "145023.592500", "145024.202500", "145024.812500", "145025.422500", "145026.032500", "145026.642500", "145027.252500", "145027.862500", "145028.472500", "145029.082500", "145029.692500", "145030.302500", "145030.912500", "145031.522500", "145032.132500", "145032.742500", "145033.352500", "145033.962500", "145034.572500", "145035.182500", "145035.792500", "145036.402500", "145037.012500", "145037.622500", "145038.232500", "145038.842500", "145039.452500", "145040.062500", "145040.672500", "145041.282500", "145041.892500", "145042.502500", "145043.112500", "145043.722500", "145044.332500", "145044.942500", "145045.552500", "145046.162500", "145046.772500", "145047.382500", "145047.992500", "145048.602500", "145049.212500", "145049.822500", "145050.432500", "145051.042500", "145051.652500", "145052.262500", "145052.872500", "145053.482500", "145054.092500", "145054.702500", "145055.312500", "145055.922500", "145056.532500", "145057.142500", "145057.752500", "145058.362500", "145058.972500", "145059.582500", "145100.192500"], "ContentTime": ["144613.865000", "144613.868000", "144613.870000", "144613.873000", "144613.875000", "144613.878000", "144613.880000", "144613.882000", "144613.885000", "144613.887000", "144613.890000", "144613.892000", "144613.894000", "144613.897000", "144613.903000", "144613.906000", "144613.908000", "144613.911000", "144613.913000", "144613.915000", "144613.918000", "144613.921000", "144613.924000", "144613.926000", "144613.928000", "144613.931000", "144613.933000", "144613.936000", "144613.938000", "144613.941000", "144613.944000", "144613.947000", "144613.949000", "144613.951000", "144613.954000", "144613.956000", "144613.959000", "144613.961000", "144633.859000", "144633.862000", "144633.864000", "144633.867000", "144633.869000", "144633.871000", "144633.874000", "144633.876000", "144633.878000", "144633.881000", "144633.883000", "144633.885000", "144633.888000", "144633.890000", "144633.892000", "144633.895000", "144633.897000", "144633.899000", "144633.902000", "144633.904000", "144633.906000", "144633.909000", "144633.911000", "144633.914000", "144633.916000", "144633.918000", "144633.921000", "144633.923000", "144633.925000", "144633.928000", "144633.930000", "144633.932000", "144633.935000", "144653.861000", "144653.865000", "144653.867000", "144653.870000", "144653.873000", "144653.877000", "144653.880000", "144653.883000", "144653.886000", "144653.888000", "144653.891000", "144653.895000", "144653.900000", "144653.908000", "144653.911000", "144653.913000", "144653.916000", "144653.919000", "144653.924000", "144653.927000", "144653.930000", "144653.933000", "144653.935000", "144653.938000", "144653.941000", "144653.945000", "144653.948000", "144653.951000", "144653.955000", "144653.958000", "144653.961000", "144653.966000", "144653.968000", "144713.860000", "144713.863000", "144713.865000", "144713.868000", "144713.870000", "144713.873000", "144713.875000", "144713.877000", "144713.880000", "144713.882000", "144713.885000", "144713.887000", "144713.890000", "144713.892000", "144713.894000", "144713.897000", "144713.899000", "144713.902000", "144713.904000", "144713.907000", "144713.909000", "144713.911000", "144713.914000", "144713.916000", "144713.919000", "144713.921000", "144713.923000", "144713.927000", "144713.929000", "144713.931000", "144713.934000", "144713.936000", "144713.939000", "144733.860000", "144733.863000", "144733.865000", "144733.868000", "144733.870000", "144733.873000", "144733.875000", "144733.878000", "144733.880000", "144733.883000", "144733.885000", "144733.887000", "144733.890000", "144733.892000", "144733.894000", "144733.897000", "144733.899000", "144733.902000", "144733.904000", "144733.907000", "144733.909000", "144733.912000", "144733.914000", "144733.917000", "144733.919000", "144733.921000", "144733.924000", "144733.926000", "144733.929000", "144733.931000", "144733.933000", "144733.936000", "144753.860000", "144753.863000", "144753.865000", "144753.868000", "144753.870000", "144753.873000", "144753.875000", "144753.877000", "144753.880000", "144753.882000", "144753.885000", "144753.887000", "144753.889000", "144753.892000", "144753.894000", "144753.897000", "144753.899000", "144753.901000", "144753.904000", "144753.906000", "144753.908000", "144753.911000", "144753.913000", "144753.916000", "144753.918000", "144753.920000", "144753.923000", "144753.925000", "144753.928000", "144753.930000", "144753.932000", "144753.935000", "144753.937000", "144813.860000", "144813.863000", "144813.865000", "144813.868000", "144813.870000", "144813.873000", "144813.875000", "144813.877000", "144813.880000", "144813.882000", "144813.884000", "144813.887000", "144813.889000", "144813.891000", "144813.894000", "144813.896000", "144813.899000", "144813.901000", "144813.903000", "144813.906000", "144813.908000", "144813.910000", "144813.913000", "144813.915000", "144813.918000", "144813.920000", "144813.922000", "144813.925000", "144813.927000", "144813.930000", "144813.932000", "144813.934000", "144813.937000", "144833.867000", "144833.901000", "144833.903000", "144833.906000", "144833.908000", "144833.911000", "144833.913000", "144833.915000", "144833.918000", "144833.920000", "144833.922000", "144833.925000", "144833.927000", "144833.930000", "144833.932000", "144833.934000", "144833.937000", "144833.939000", "144833.942000", "144833.944000", "144833.946000", "144833.949000", "144833.951000", "144833.954000", "144833.956000", "144833.958000", "144833.961000", "144833.963000", "144833.966000", "144833.968000", "144833.970000", "144833.973000", "144833.975000", "144853.859000", "144853.862000", "144853.865000", "144853.867000", "144853.869000", "144853.872000", "144853.874000", "144853.877000", "144853.879000", "144853.881000", "144853.884000", "144853.886000", "144853.889000", "144853.891000", "144853.894000", "144853.896000", "144853.898000", "144853.901000", "144853.903000", "144853.906000", "144853.908000", "144853.910000", "144853.913000", "144853.915000", "144853.918000", "144853.920000", "144853.923000", "144853.925000", "144853.928000", "144853.930000", "144853.933000", "144853.935000", "144913.860000", "144913.863000", "144913.866000", "144913.868000", "144913.870000", "144913.873000", "144913.875000", "144913.878000", "144913.880000", "144913.882000", "144913.885000", "144913.887000", "144913.889000", "144913.893000", "144913.895000", "144913.898000", "144913.900000", "144913.903000", "144913.905000", "144913.908000", "144913.910000", "144913.913000", "144913.915000", "144913.917000", "144913.920000", "144913.922000", "144913.925000", "144913.927000", "144913.930000", "144913.932000", "144913.934000", "144913.937000", "144913.939000", "144933.860000", "144933.864000", "144933.866000", "144933.868000", "144933.871000", "144933.873000", "144933.876000", "144933.878000", "144933.881000", "144933.884000", "144933.886000", "144933.888000", "144933.891000", "144933.893000", "144933.896000", "144933.898000", "144933.900000", "144933.903000", "144933.905000", "144933.908000", "144933.910000", "144933.913000", "144933.915000", "144933.917000", "144933.920000", "144933.922000", "144933.925000", "144933.927000", "144933.929000", "144933.932000", "144933.934000", "144933.937000", "144933.939000", "144953.860000", "144953.863000", "144953.865000", "144953.868000", "144953.870000", "144953.872000", "144953.875000", "144953.877000", "144953.880000", "144953.882000", "144953.885000", "144953.887000", "144953.889000", "144953.892000", "144953.894000", "144953.897000", "144953.899000", "144953.901000", "144953.904000", "144953.906000", "144953.908000", "144953.911000", "144953.913000", "144953.916000", "144953.918000", "144953.920000", "144953.923000", "144953.925000", "144953.928000", "144953.930000", "144953.932000", "144953.935000", "144953.937000", "145013.860000", "145013.863000", "145013.865000", "145013.868000", "145013.870000", "145013.872000", "145013.875000", "145013.877000", "145013.880000", "145013.882000", "145013.884000", "145013.887000", "145013.889000", "145013.891000", "145013.894000", "145013.896000", "145013.898000", "145013.901000", "145013.903000", "145013.906000", "145013.908000", "145013.910000", "145013.913000", "145013.915000", "145013.917000", "145013.920000", "145013.922000", "145013.924000", "145013.927000", "145013.929000", "145013.931000", "145013.934000", "145013.936000", "145033.860000", "145033.863000", "145033.866000", "145033.868000", "145033.870000", "145033.873000", "145033.875000", "145033.878000", "145033.880000", "145033.882000", "145033.885000", "145033.887000", "145033.889000", "145033.892000", "145033.894000", "145033.897000", "145033.899000", "145033.901000", "145033.904000", "145033.906000", "145033.908000", "145033.911000", "145033.913000", "145033.916000", "145033.918000", "145033.920000", "145033.923000", "145033.925000", "145033.927000", "145033.930000", "145033.932000", "145033.935000", "145053.860000", "145053.863000", "145053.865000", "145053.868000", "145053.870000", "145053.873000", "145053.875000", "145053.878000", "145053.880000", "145053.883000", "145053.885000", "145053.887000", "145053.890000", "145053.892000", "145053.895000", "145053.897000", "145053.900000", "145053.902000", "145053.904000", "145053.907000", "145053.909000", "145053.912000", "145053.914000", "145053.916000", "145053.919000", "145053.921000", "145053.924000", "145053.938000", "145053.941000", "145053.943000", "145053.946000", "145053.948000", "145053.953000", "145101.374000", "145101.377000", "145101.380000", "145101.382000", "145101.385000", "145101.387000", "145101.389000", "145101.392000", "145101.394000", "145101.397000", "145101.399000", "145101.401000", "145101.404000"], "InstanceCreationTime": ["144613.865000", "144613.868000", "144613.870000", "144613.873000", "144613.875000", "144613.878000", "144613.880000", "144613.882000", "144613.885000", "144613.887000", "144613.890000", "144613.892000", "144613.894000", "144613.897000", "144613.903000", "144613.906000", "144613.908000", "144613.911000", "144613.913000", "144613.915000", "144613.918000", "144613.921000", "144613.924000", "144613.926000", "144613.928000", "144613.931000", "144613.933000", "144613.936000", "144613.938000", "144613.941000", "144613.944000", "144613.947000", "144613.949000", "144613.951000", "144613.954000", "144613.956000", "144613.959000", "144613.961000", "144633.859000", "144633.862000", "144633.864000", "144633.867000", "144633.869000", "144633.871000", "144633.874000", "144633.876000", "144633.878000", "144633.881000", "144633.883000", "144633.885000", "144633.888000", "144633.890000", "144633.892000", "144633.895000", "144633.897000", "144633.899000", "144633.902000", "144633.904000", "144633.906000", "144633.909000", "144633.911000", "144633.914000", "144633.916000", "144633.918000", "144633.921000", "144633.923000", "144633.925000", "144633.928000", "144633.930000", "144633.932000", "144633.935000", "144653.861000", "144653.865000", "144653.867000", "144653.870000", "144653.873000", "144653.877000", "144653.880000", "144653.883000", "144653.886000", "144653.888000", "144653.891000", "144653.895000", "144653.900000", "144653.908000", "144653.911000", "144653.913000", "144653.916000", "144653.919000", "144653.924000", "144653.927000", "144653.930000", "144653.933000", "144653.935000", "144653.938000", "144653.941000", "144653.945000", "144653.948000", "144653.951000", "144653.955000", "144653.958000", "144653.961000", "144653.966000", "144653.968000", "144713.860000", "144713.863000", "144713.865000", "144713.868000", "144713.870000", "144713.873000", "144713.875000", "144713.877000", "144713.880000", "144713.882000", "144713.885000", "144713.887000", "144713.890000", "144713.892000", "144713.894000", "144713.897000", "144713.899000", "144713.902000", "144713.904000", "144713.907000", "144713.909000", "144713.911000", "144713.914000", "144713.916000", "144713.919000", "144713.921000", "144713.923000", "144713.927000", "144713.929000", "144713.931000", "144713.934000", "144713.936000", "144713.939000", "144733.860000", "144733.863000", "144733.865000", "144733.868000", "144733.870000", "144733.873000", "144733.875000", "144733.878000", "144733.880000", "144733.883000", "144733.885000", "144733.887000", "144733.890000", "144733.892000", "144733.894000", "144733.897000", "144733.899000", "144733.902000", "144733.904000", "144733.907000", "144733.909000", "144733.912000", "144733.914000", "144733.917000", "144733.919000", "144733.921000", "144733.924000", "144733.926000", "144733.929000", "144733.931000", "144733.933000", "144733.936000", "144753.860000", "144753.863000", "144753.865000", "144753.868000", "144753.870000", "144753.873000", "144753.875000", "144753.877000", "144753.880000", "144753.882000", "144753.885000", "144753.887000", "144753.889000", "144753.892000", "144753.894000", "144753.897000", "144753.899000", "144753.901000", "144753.904000", "144753.906000", "144753.908000", "144753.911000", "144753.913000", "144753.916000", "144753.918000", "144753.920000", "144753.923000", "144753.925000", "144753.928000", "144753.930000", "144753.932000", "144753.935000", "144753.937000", "144813.860000", "144813.863000", "144813.865000", "144813.868000", "144813.870000", "144813.873000", "144813.875000", "144813.877000", "144813.880000", "144813.882000", "144813.884000", "144813.887000", "144813.889000", "144813.891000", "144813.894000", "144813.896000", "144813.899000", "144813.901000", "144813.903000", "144813.906000", "144813.908000", "144813.910000", "144813.913000", "144813.915000", "144813.918000", "144813.920000", "144813.922000", "144813.925000", "144813.927000", "144813.930000", "144813.932000", "144813.934000", "144813.937000", "144833.867000", "144833.901000", "144833.903000", "144833.906000", "144833.908000", "144833.911000", "144833.913000", "144833.915000", "144833.918000", "144833.920000", "144833.922000", "144833.925000", "144833.927000", "144833.930000", "144833.932000", "144833.934000", "144833.937000", "144833.939000", "144833.942000", "144833.944000", "144833.946000", "144833.949000", "144833.951000", "144833.954000", "144833.956000", "144833.958000", "144833.961000", "144833.963000", "144833.966000", "144833.968000", "144833.970000", "144833.973000", "144833.975000", "144853.859000", "144853.862000", "144853.865000", "144853.867000", "144853.869000", "144853.872000", "144853.874000", "144853.877000", "144853.879000", "144853.881000", "144853.884000", "144853.886000", "144853.889000", "144853.891000", "144853.894000", "144853.896000", "144853.898000", "144853.901000", "144853.903000", "144853.906000", "144853.908000", "144853.910000", "144853.913000", "144853.915000", "144853.918000", "144853.920000", "144853.923000", "144853.925000", "144853.928000", "144853.930000", "144853.933000", "144853.935000", "144913.860000", "144913.863000", "144913.866000", "144913.868000", "144913.870000", "144913.873000", "144913.875000", "144913.878000", "144913.880000", "144913.882000", "144913.885000", "144913.887000", "144913.889000", "144913.893000", "144913.895000", "144913.898000", "144913.900000", "144913.903000", "144913.905000", "144913.90800