{"AcquisitionMatrixPE": 64, "AcquisitionNumber": 1, "AcquisitionTime": "14:47:2.750000", "BandwidthPerPixelPhaseEncode": 28.935, "BaseResolution": 64, "BodyPartExamined": "BRAIN", "CoilCombinationMethod": "Sum of Squares", "ConsistencyInfo": "N4_VE11E_LATEST_20181129", "ConversionSoftware": "dcm2niix", "ConversionSoftwareVersion": "v1.0.20230411", "DerivedVendorReportedEchoSpacing": 0.000540003, "DeviceSerialNumber": "166182", "DwellTime": 3.4e-06, "EchoTime": 0.032, "EchoTrainLength": 64, "EffectiveEchoSpacing": 0.000540003, "FlipAngle": 40, "HeudiconvVersion": "0.13.1", "ImageOrientationPatientDICOM": [0.992179, 0.123999, -0.0142905, -0.123055, 0.990905, 0.0544569], "ImageOrientationText": "Tra>Cor(3.0)>Sag(-1.2)", "ImageType": ["ORIGINAL", "PRIMARY", "M", "ND", "NORM", "MOSAIC"], "ImagingFrequency": 123.257012, "InPlanePhaseEncodingDirectionDICOM": "COL", "InstitutionAddress": "PEARSE STREET .,City,District,IE,D2", "InstitutionName": "TCIN", "InstitutionalDepartmentName": "MRI", "MRAcquisitionType": "2D", "MagneticFieldStrength": 3, "Manufacturer": "Siemens", "ManufacturersModelName": "Prisma", "Modality": "MR", "MultibandAccelerationFactor": 4, "NonlinearGradientCorrection": false, "PartialFourier": 1, "PatientPosition": "HFS", "PercentPhaseFOV": 100, "PercentSampling": 100, "PhaseEncodingDirection": "j-", "PhaseEncodingSteps": 64, "PhaseResolution": 1, "PixelBandwidth": 2300, "ProcedureStepDescription": "Rhodri^Head BOLD", "ProtocolName": "cmrr_mbep2d_Pictures_AP_RDS", "PulseSequenceDetails": "%SiemensSeq%\\ep2d_bold", "ReceiveCoilActiveElements": "HC2,4,6,7;SC", "ReceiveCoilName": "SpecialPurpose_4", "ReconMatrixPE": 64, "RefLinesPE": 12, "RepetitionTime": 0.61, "SAR": 0.248384, "ScanOptions": "FS", "ScanningSequence": "EP", "SequenceName": "*epfid2d1_64", "SequenceVariant": "SK", "SeriesDescription": "cmrr_mbep2d_Pictures_AP_RDS", "SeriesNumber": 10, "ShimSetting": [-3664, -7473, 3893, 911, -146, -2, -11, -50], "SliceThickness": 3, "SliceTiming": [0.2625, 0, 0.3275, 0.065, 0.3925, 0.13, 0.46, 0.1975, 0.525, 0.2625, 0, 0.3275, 0.065, 0.3925, 0.13, 0.46, 0.1975, 0.525, 0.2625, 0, 0.3275, 0.065, 0.3925, 0.13, 0.46, 0.1975, 0.525, 0.2625, 0, 0.3275, 0.065, 0.3925, 0.13, 0.46, 0.1975, 0.525], "SoftwareVersions": "syngo MR E11", "SpacingBetweenSlices": 3.3, "StationName": "AWP166182", "TaskName": "pictures", "TotalReadoutTime": 0.0340202, "TxRefAmp": 234.856, "dcmmeta_affine": [[-2.9765384197235107, -0.3691650331020355, -0.06901320070028305, 107.9325942993164], [-0.37199607491493225, 2.9727137088775635, 0.17249925434589386, -95.94861602783203], [-0.04287145286798477, -0.16337069869041443, 3.2947657108306885, -86.34638214111328], [0.0, 0.0, 0.0, 1.0]], "dcmmeta_reorient_transform": [[0.0, -1.0, 0.0, 63.0], [1.0, 0.0, 0.0, 0.0], [0.0, 0.0, 1.0, 0.0], [0.0, 0.0, 0.0, 1.0]], "dcmmeta_shape": [64, 64, 36, 510], "dcmmeta_slice_dim": 2, "dcmmeta_version": 0.6, "global": {"const": {"AcquisitionMatrix": [64, 0, 0, 64], "AngioFlag": "N", "BitsAllocated": 16, "BitsStored": 12, "BodyPartExamined": "BRAIN", "Columns": 384, "EchoNumbers": 1, "EchoTime": 32.0, "EchoTrainLength": 64, "FlipAngle": 40.0, "HighBit": 11, "ImageOrientationPatient": [0.99217947328396, 0.1239986889325, -0.0142904841409, -0.123055009802, 0.99090459208242, 0.05445689995405], "ImagePositionPatient": [-501.85494126795, -626.48593037515, -115.9186161285], "ImageType": ["ORIGINAL", "PRIMARY", "M", "ND", "NORM", "MOSAIC"], "ImagedNucleus": "1H", "ImagingFrequency": 123.257012, "InPlanePhaseEncodingDirection": "COL", "MRAcquisitionType": "2D", "MagneticFieldStrength": 3.0, "Manufacturer": "SIEMENS", "ManufacturerModelName": "Prisma", "Modality": "MR", "NumberOfAverages": 1.0, "NumberOfPhaseEncodingSteps": 64, "PercentPhaseFieldOfView": 100.0, "PercentSampling": 100.0, "PerformedProcedureStepStartTime": "142640.988000", "PhotometricInterpretation": "MONOCHROME2", "PixelBandwidth": 2300.0, "PixelRepresentation": 0, "PixelSpacing": [3.0, 3.0], "ProtocolName": "cmrr_mbep2d_Pictures_AP_RDS", "RepetitionTime": 610.0, "Rows": 384, "SAR": 0.24838353515764, "SamplesPerPixel": 1, "ScanOptions": "FS", "ScanningSequence": "EP", "SequenceName": "*epfid2d1_64", "SequenceVariant": "SK", "SeriesDescription": "cmrr_mbep2d_Pictures_AP_RDS", "SeriesNumber": 10, "SeriesTime": "144719.521000", "SliceLocation": -93.482102904787, "SliceThickness": 3.0, "SmallestImagePixelValue": 0, "SoftwareVersions": "syngo MR E11", "SpacingBetweenSlices": 3.3000000203867, "SpecificCharacterSet": "ISO_IR 100", "StudyID": "1", "StudyTime": "142640.901000", "TransmitCoilName": "Body", "VariableFlipAngleFlag": "N", "WindowCenterWidthExplanation": "Algo1"}, "slices": {}}, "time": {"samples": {"AcquisitionNumber": [1, 2, 3, 4, 5, 6, 7, 8, 9, 10, 11, 12, 13, 14, 15, 16, 17, 18, 19, 20, 21, 22, 23, 24, 25, 26, 27, 28, 29, 30, 31, 32, 33, 34, 35, 36, 37, 38, 39, 40, 41, 42, 43, 44, 45, 46, 47, 48, 49, 50, 51, 52, 53, 54, 55, 56, 57, 58, 59, 60, 61, 62, 63, 64, 65, 66, 67, 68, 69, 70, 71, 72, 73, 74, 75, 76, 77, 78, 79, 80, 81, 82, 83, 84, 85, 86, 87, 88, 89, 90, 91, 92, 93, 94, 95, 96, 97, 98, 99, 100, 101, 102, 103, 104, 105, 106, 107, 108, 109, 110, 111, 112, 113, 114, 115, 116, 117, 118, 119, 120, 121, 122, 123, 124, 125, 126, 127, 128, 129, 130, 131, 132, 133, 134, 135, 136, 137, 138, 139, 140, 141, 142, 143, 144, 145, 146, 147, 148, 149, 150, 151, 152, 153, 154, 155, 156, 157, 158, 159, 160, 161, 162, 163, 164, 165, 166, 167, 168, 169, 170, 171, 172, 173, 174, 175, 176, 177, 178, 179, 180, 181, 182, 183, 184, 185, 186, 187, 188, 189, 190, 191, 192, 193, 194, 195, 196, 197, 198, 199, 200, 201, 202, 203, 204, 205, 206, 207, 208, 209, 210, 211, 212, 213, 214, 215, 216, 217, 218, 219, 220, 221, 222, 223, 224, 225, 226, 227, 228, 229, 230, 231, 232, 233, 234, 235, 236, 237, 238, 239, 240, 241, 242, 243, 244, 245, 246, 247, 248, 249, 250, 251, 252, 253, 254, 255, 256, 257, 258, 259, 260, 261, 262, 263, 264, 265, 266, 267, 268, 269, 270, 271, 272, 273, 274, 275, 276, 277, 278, 279, 280, 281, 282, 283, 284, 285, 286, 287, 288, 289, 290, 291, 292, 293, 294, 295, 296, 297, 298, 299, 300, 301, 302, 303, 304, 305, 306, 307, 308, 309, 310, 311, 312, 313, 314, 315, 316, 317, 318, 319, 320, 321, 322, 323, 324, 325, 326, 327, 328, 329, 330, 331, 332, 333, 334, 335, 336, 337, 338, 339, 340, 341, 342, 343, 344, 345, 346, 347, 348, 349, 350, 351, 352, 353, 354, 355, 356, 357, 358, 359, 360, 361, 362, 363, 364, 365, 366, 367, 368, 369, 370, 371, 372, 373, 374, 375, 376, 377, 378, 379, 380, 381, 382, 383, 384, 385, 386, 387, 388, 389, 390, 391, 392, 393, 394, 395, 396, 397, 398, 399, 400, 401, 402, 403, 404, 405, 406, 407, 408, 409, 410, 411, 412, 413, 414, 415, 416, 417, 418, 419, 420, 421, 422, 423, 424, 425, 426, 427, 428, 429, 430, 431, 432, 433, 434, 435, 436, 437, 438, 439, 440, 441, 442, 443, 444, 445, 446, 447, 448, 449, 450, 451, 452, 453, 454, 455, 456, 457, 458, 459, 460, 461, 462, 463, 464, 465, 466, 467, 468, 469, 470, 471, 472, 473, 474, 475, 476, 477, 478, 479, 480, 481, 482, 483, 484, 485, 486, 487, 488, 489, 490, 491, 492, 493, 494, 495, 496, 497, 498, 499, 500, 501, 502, 503, 504, 505, 506, 507, 508, 509, 510], "AcquisitionTime": ["144702.750000", "144703.360000", "144703.970000", "144704.580000", "144705.190000", "144705.800000", "144706.410000", "144707.020000", "144707.630000", "144708.240000", "144708.850000", "144709.460000", "144710.070000", "144710.680000", "144711.290000", "144711.900000", "144712.510000", "144713.120000", "144713.730000", "144714.340000", "144714.950000", "144715.560000", "144716.170000", "144716.780000", "144717.390000", "144718.000000", "144718.610000", "144719.220000", "144719.830000", "144720.440000", "144721.050000", "144721.660000", "144722.270000", "144722.880000", "144723.490000", "144724.100000", "144724.710000", "144725.320000", "144725.930000", "144726.540000", "144727.150000", "144727.760000", "144728.370000", "144728.980000", "144729.590000", "144730.200000", "144730.810000", "144731.420000", "144732.030000", "144732.640000", "144733.250000", "144733.860000", "144734.470000", "144735.080000", "144735.690000", "144736.300000", "144736.910000", "144737.520000", "144738.130000", "144738.740000", "144739.350000", "144739.960000", "144740.570000", "144741.180000", "144741.790000", "144742.400000", "144743.010000", "144743.620000", "144744.230000", "144744.840000", "144745.450000", "144746.060000", "144746.670000", "144747.280000", "144747.890000", "144748.500000", "144749.110000", "144749.720000", "144750.330000", "144750.940000", "144751.550000", "144752.160000", "144752.770000", "144753.380000", "144753.990000", "144754.600000", "144755.210000", "144755.820000", "144756.430000", "144757.040000", "144757.650000", "144758.260000", "144758.870000", "144759.480000", "144800.090000", "144800.700000", "144801.310000", "144801.920000", "144802.530000", "144803.140000", "144803.750000", "144804.360000", "144804.970000", "144805.580000", "144806.190000", "144806.800000", "144807.410000", "144808.020000", "144808.630000", "144809.240000", "144809.850000", "144810.460000", "144811.070000", "144811.680000", "144812.290000", "144812.900000", "144813.510000", "144814.120000", "144814.730000", "144815.340000", "144815.950000", "144816.560000", "144817.170000", "144817.780000", "144818.390000", "144819.000000", "144819.610000", "144820.220000", "144820.830000", "144821.440000", "144822.050000", "144822.660000", "144823.270000", "144823.880000", "144824.490000", "144825.100000", "144825.710000", "144826.320000", "144826.930000", "144827.540000", "144828.150000", "144828.760000", "144829.370000", "144829.980000", "144830.590000", "144831.200000", "144831.810000", "144832.420000", "144833.030000", "144833.640000", "144834.250000", "144834.860000", "144835.470000", "144836.080000", "144836.690000", "144837.300000", "144837.910000", "144838.520000", "144839.130000", "144839.740000", "144840.350000", "144840.960000", "144841.570000", "144842.180000", "144842.790000", "144843.400000", "144844.010000", "144844.620000", "144845.230000", "144845.840000", "144846.450000", "144847.060000", "144847.670000", "144848.280000", "144848.890000", "144849.500000", "144850.110000", "144850.720000", "144851.330000", "144851.940000", "144852.550000", "144853.160000", "144853.770000", "144854.380000", "144854.990000", "144855.600000", "144856.210000", "144856.820000", "144857.430000", "144858.040000", "144858.650000", "144859.260000", "144859.870000", "144900.480000", "144901.090000", "144901.700000", "144902.310000", "144902.920000", "144903.530000", "144904.140000", "144904.750000", "144905.360000", "144905.970000", "144906.580000", "144907.190000", "144907.800000", "144908.410000", "144909.020000", "144909.630000", "144910.240000", "144910.850000", "144911.460000", "144912.070000", "144912.680000", "144913.290000", "144913.900000", "144914.510000", "144915.120000", "144915.730000", "144916.340000", "144916.950000", "144917.560000", "144918.170000", "144918.780000", "144919.390000", "144920.000000", "144920.610000", "144921.220000", "144921.830000", "144922.440000", "144923.050000", "144923.660000", "144924.270000", "144924.880000", "144925.490000", "144926.100000", "144926.710000", "144927.320000", "144927.930000", "144928.540000", "144929.150000", "144929.760000", "144930.370000", "144930.980000", "144931.590000", "144932.200000", "144932.810000", "144933.420000", "144934.030000", "144934.640000", "144935.250000", "144935.860000", "144936.470000", "144937.080000", "144937.690000", "144938.300000", "144938.910000", "144939.520000", "144940.130000", "144940.740000", "144941.350000", "144941.960000", "144942.570000", "144943.180000", "144943.790000", "144944.400000", "144945.010000", "144945.620000", "144946.230000", "144946.840000", "144947.450000", "144948.060000", "144948.670000", "144949.280000", "144949.890000", "144950.500000", "144951.110000", "144951.720000", "144952.330000", "144952.940000", "144953.550000", "144954.160000", "144954.770000", "144955.380000", "144955.990000", "144956.600000", "144957.210000", "144957.820000", "144958.430000", "144959.040000", "144959.650000", "145000.260000", "145000.870000", "145001.480000", "145002.090000", "145002.700000", "145003.310000", "145003.920000", "145004.530000", "145005.140000", "145005.750000", "145006.360000", "145006.970000", "145007.580000", "145008.190000", "145008.800000", "145009.410000", "145010.020000", "145010.630000", "145011.240000", "145011.850000", "145012.460000", "145013.070000", "145013.680000", "145014.290000", "145014.900000", "145015.510000", "145016.120000", "145016.730000", "145017.340000", "145017.950000", "145018.560000", "145019.170000", "145019.780000", "145020.390000", "145021.000000", "145021.610000", "145022.220000", "145022.830000", "145023.440000", "145024.050000", "145024.660000", "145025.270000", "145025.880000", "145026.490000", "145027.100000", "145027.710000", "145028.320000", "145028.930000", "145029.540000", "145030.150000", "145030.760000", "145031.370000", "145031.980000", "145032.590000", "145033.200000", "145033.810000", "145034.420000", "145035.030000", "145035.640000", "145036.250000", "145036.860000", "145037.470000", "145038.080000", "145038.690000", "145039.300000", "145039.910000", "145040.520000", "145041.130000", "145041.740000", "145042.350000", "145042.960000", "145043.570000", "145044.180000", "145044.790000", "145045.400000", "145046.010000", "145046.620000", "145047.230000", "145047.840000", "145048.450000", "145049.060000", "145049.670000", "145050.280000", "145050.890000", "145051.500000", "145052.110000", "145052.720000", "145053.330000", "145053.940000", "145054.550000", "145055.160000", "145055.770000", "145056.380000", "145056.990000", "145057.600000", "145058.210000", "145058.820000", "145059.430000", "145100.040000", "145100.650000", "145101.260000", "145101.870000", "145102.480000", "145103.090000", "145103.700000", "145104.310000", "145104.920000", "145105.530000", "145106.140000", "145106.750000", "145107.360000", "145107.970000", "145108.580000", "145109.190000", "145109.800000", "145110.410000", "145111.020000", "145111.630000", "145112.240000", "145112.850000", "145113.460000", "145114.070000", "145114.680000", "145115.290000", "145115.900000", "145116.510000", "145117.120000", "145117.730000", "145118.340000", "145118.950000", "145119.560000", "145120.170000", "145120.780000", "145121.390000", "145122.000000", "145122.610000", "145123.220000", "145123.830000", "145124.440000", "145125.050000", "145125.660000", "145126.270000", "145126.880000", "145127.490000", "145128.100000", "145128.710000", "145129.320000", "145129.930000", "145130.540000", "145131.150000", "145131.760000", "145132.370000", "145132.980000", "145133.590000", "145134.200000", "145134.810000", "145135.420000", "145136.030000", "145136.640000", "145137.250000", "145137.860000", "145138.470000", "145139.080000", "145139.690000", "145140.300000", "145140.910000", "145141.520000", "145142.130000", "145142.740000", "145143.350000", "145143.960000", "145144.570000", "145145.180000", "145145.790000", "145146.400000", "145147.010000", "145147.620000", "145148.230000", "145148.840000", "145149.450000", "145150.060000", "145150.670000", "145151.280000", "145151.890000", "145152.500000", "145153.110000", "145153.720000", "145154.330000", "145154.940000", "145155.550000", "145156.160000", "145156.770000", "145157.380000", "145157.990000", "145158.600000", "145159.210000", "145159.820000", "145200.430000", "145201.040000", "145201.650000", "145202.260000", "145202.870000", "145203.480000", "145204.090000", "145204.700000", "145205.310000", "145205.920000", "145206.530000", "145207.140000", "145207.750000", "145208.360000", "145208.970000", "145209.580000", "145210.190000", "145210.800000", "145211.410000", "145212.020000", "145212.630000", "145213.240000"], "ContentTime": ["144719.524000", "144719.527000", "144719.530000", "144719.532000", "144719.534000", "144719.537000", "144719.539000", "144719.541000", "144719.544000", "144719.554000", "144719.557000", "144719.559000", "144719.561000", "144719.565000", "144719.567000", "144719.578000", "144719.580000", "144719.583000", "144719.585000", "144719.588000", "144719.590000", "144719.593000", "144719.595000", "144719.597000", "144719.600000", "144719.602000", "144739.519000", "144739.522000", "144739.524000", "144739.527000", "144739.529000", "144739.532000", "144739.534000", "144739.536000", "144739.539000", "144739.541000", "144739.543000", "144739.546000", "144739.548000", "144739.550000", "144739.558000", "144739.560000", "144739.563000", "144739.565000", "144739.567000", "144739.570000", "144739.572000", "144739.574000", "144739.577000", "144739.579000", "144739.582000", "144739.584000", "144739.586000", "144739.589000", "144739.591000", "144739.593000", "144739.596000", "144739.598000", "144739.601000", "144759.519000", "144759.522000", "144759.527000", "144759.529000", "144759.532000", "144759.534000", "144759.537000", "144759.539000", "144759.541000", "144759.544000", "144759.546000", "144759.548000", "144759.551000", "144759.553000", "144759.556000", "144759.558000", "144759.560000", "144759.563000", "144759.565000", "144759.568000", "144759.570000", "144759.572000", "144759.575000", "144759.577000", "144759.579000", "144759.582000", "144759.584000", "144759.586000", "144759.589000", "144759.591000", "144759.594000", "144759.596000", "144759.598000", "144819.518000", "144819.521000", "144819.523000", "144819.526000", "144819.528000", "144819.530000", "144819.533000", "144819.535000", "144819.538000", "144819.540000", "144819.542000", "144819.545000", "144819.547000", "144819.550000", "144819.552000", "144819.554000", "144819.557000", "144819.559000", "144819.561000", "144819.564000", "144819.566000", "144819.569000", "144819.571000", "144819.574000", "144819.576000", "144819.578000", "144819.581000", "144819.583000", "144819.585000", "144819.588000", "144819.590000", "144819.593000", "144819.595000", "144839.518000", "144839.521000", "144839.523000", "144839.526000", "144839.535000", "144839.538000", "144839.540000", "144839.542000", "144839.545000", "144839.547000", "144839.549000", "144839.552000", "144839.554000", "144839.557000", "144839.559000", "144839.561000", "144839.564000", "144839.566000", "144839.569000", "144839.571000", "144839.573000", "144839.588000", "144839.590000", "144839.592000", "144839.595000", "144839.597000", "144839.600000", "144839.602000", "144839.604000", "144839.607000", "144839.609000", "144839.612000", "144859.518000", "144859.521000", "144859.523000", "144859.526000", "144859.528000", "144859.531000", "144859.533000", "144859.535000", "144859.538000", "144859.540000", "144859.542000", "144859.545000", "144859.547000", "144859.550000", "144859.552000", "144859.554000", "144859.557000", "144859.559000", "144859.562000", "144859.564000", "144859.566000", "144859.569000", "144859.571000", "144859.574000", "144859.576000", "144859.578000", "144859.581000", "144859.583000", "144859.590000", "144859.594000", "144859.596000", "144859.599000", "144859.601000", "144919.518000", "144919.521000", "144919.523000", "144919.526000", "144919.528000", "144919.530000", "144919.533000", "144919.535000", "144919.537000", "144919.540000", "144919.542000", "144919.545000", "144919.553000", "144919.555000", "144919.557000", "144919.560000", "144919.562000", "144919.565000", "144919.581000", "144919.583000", "144919.586000", "144919.588000", "144919.591000", "144919.593000", "144919.595000", "144919.598000", "144919.600000", "144919.603000", "144919.605000", "144919.608000", "144919.610000", "144919.612000", "144919.615000", "144939.519000", "144939.522000", "144939.524000", "144939.527000", "144939.529000", "144939.531000", "144939.534000", "144939.536000", "144939.539000", "144939.541000", "144939.543000", "144939.546000", "144939.548000", "144939.551000", "144939.553000", "144939.555000", "144939.558000", "144939.560000", "144939.563000", "144939.565000", "144939.567000", "144939.570000", "144939.572000", "144939.575000", "144939.577000", "144939.579000", "144939.582000", "144939.584000", "144939.587000", "144939.589000", "144939.591000", "144939.594000", "144939.596000", "144959.519000", "144959.522000", "144959.524000", "144959.527000", "144959.529000", "144959.531000", "144959.534000", "144959.537000", "144959.539000", "144959.542000", "144959.544000", "144959.547000", "144959.549000", "144959.552000", "144959.554000", "144959.556000", "144959.559000", "144959.561000", "144959.564000", "144959.566000", "144959.568000", "144959.571000", "144959.573000", "144959.576000", "144959.578000", "144959.580000", "144959.583000", "144959.585000", "144959.588000", "144959.590000", "144959.592000", "144959.595000", "145019.519000", "145019.522000", "145019.524000", "145019.527000", "145019.529000", "145019.532000", "145019.534000", "145019.537000", "145019.539000", "145019.541000", "145019.544000", "145019.546000", "145019.548000", "145019.551000", "145019.553000", "145019.556000", "145019.558000", "145019.560000", "145019.563000", "145019.565000", "145019.568000", "145019.570000", "145019.573000", "145019.575000", "145019.577000", "145019.580000", "145019.582000", "145019.585000", "145019.587000", "145019.589000", "145019.592000", "145019.594000", "145019.597000", "145039.518000", "145039.521000", "145039.523000", "145039.526000", "145039.528000", "145039.531000", "145039.533000", "145039.536000", "145039.538000", "145039.540000", "145039.543000", "145039.545000", "145039.548000", "145039.550000", "145039.552000", "145039.555000", "145039.557000", "145039.560000", "145039.562000", "145039.565000", "145039.567000", "145039.569000", "145039.572000", "145039.574000", "145039.576000", "145039.579000", "145039.581000", "145039.584000", "145039.586000", "145039.589000", "145039.591000", "145039.593000", "145039.596000", "145059.518000", "145059.521000", "145059.523000", "145059.526000", "145059.528000", "145059.530000", "145059.533000", "145059.535000", "145059.538000", "145059.540000", "145059.543000", "145059.545000", "145059.547000", "145059.550000", "145059.552000", "145059.555000", "145059.557000", "145059.560000", "145059.562000", "145059.564000", "145059.567000", "145059.569000", "145059.572000", "145059.574000", "145059.576000", "145059.579000", "145059.581000", "145059.584000", "145059.586000", "145059.588000", "145059.591000", "145059.593000", "145059.596000", "145119.518000", "145119.528000", "145119.530000", "145119.533000", "145119.535000", "145119.537000", "145119.540000", "145119.542000", "145119.545000", "145119.547000", "145119.550000", "145119.552000", "145119.555000", "145119.557000", "145119.559000", "145119.562000", "145119.564000", "145119.567000", "145119.569000", "145119.571000", "145119.574000", "145119.576000", "145119.579000", "145119.581000", "145119.584000", "145119.586000", "145119.588000", "145119.591000", "145119.593000", "145119.596000", "145119.598000", "145119.601000", "145119.603000", "145139.518000", "145139.521000", "145139.523000", "145139.526000", "145139.528000", "145139.531000", "145139.533000", "145139.535000", "145139.538000", "145139.540000", "145139.543000", "145139.545000", "145139.547000", "145139.550000", "145139.552000", "145139.555000", "145139.557000", "145139.560000", "145139.562000", "145139.564000", "145139.567000", "145139.569000", "145139.571000", "145139.574000", "145139.576000", "145139.579000", "145139.581000", "145139.584000", "145139.587000", "145139.590000", "145139.592000", "145139.595000", "145159.520000", "145159.522000", "145159.525000", "145159.527000", "145159.530000", "145159.532000", "145159.535000", "145159.545000", "145159.547000", "145159.550000", "145159.553000", "145159.556000", "145159.558000", "145159.561000", "145159.563000", "145159.566000", "145159.568000", "145159.570000", "145159.573000", "145159.575000", "145159.577000", "145159.580000", "145159.583000", "145159.585000", "145159.587000", "145159.590000", "145159.592000", "145159.595000", "145159.597000", "145159.600000", "145159.602000", "145159.605000", "145159.608000", "145214.318000", "145214.320000", "145214.323000", "145214.325000", "145214.328000", "145214.330000", "145214.333000", "145214.335000", "145214.338000", "145214.340000", "145214.343000", "145214.345000", "145214.347000", "145214.350000", "145214.352000", "145214.355000", "145214.357000", "145214.360000", "145214.362000", "145214.364000", "145214.367000", "145214.369000", "145214.372000", "145214.374000", "145214.376000"], "InstanceCreationTime": ["144719.524000", "144719.527000", "144719.530000", "144719.532000", "144719.534000", "144719.537000", "144719.539000", "144719.541000", "144719.544000", "144719.554000", "144719.557000", "144719.559000", "144719.561000", "144719.565000", "144719.567000", "144719.578000", "144719.580000", "144719.583000", "144719.585000", "144719.588000", "144719.590000", "144719.593000", "144719.595000", "144719.597000", "144719.600000", "144719.602000", "144739.519000", "144739.522000", "144739.524000", "144739.527000", "144739.529000", "144739.532000", "144739.534000", "144739.536000", "144739.539000", "144739.541000", "144739.543000", "144739.546000", "144739.548000", "144739.550000", "144739.558000", "144739.560000", "144739.563000", "144739.565000", "144739.567000", "144739.570000", "144739.572000", "144739.574000", "144739.577000", "144739.579000", "144739.582000", "144739.584000", "144739.586000", "144739.589000", "144739.591000", "144739.593000", "144739.596000", "144739.598000", "144739.601000", "144759.519000", "144759.522000", "144759.527000", "144759.529000", "144759.532000", "144759.534000", "144759.537000", "144759.539000", "144759.541000", "144759.544000", "144759.546000", "144759.548000", "144759.551000", "144759.553000", "144759.556000", "144759.558000", "144759.560000", "144759.563000", "144759.565000", "144759.568000", "144759.570000", "144759.572000", "144759.575000", "144759.577000", "144759.579000", "144759.582000", "144759.584000", "144759.586000", "144759.589000", "144759.591000", "144759.594000", "144759.596000", "144759.598000", "144819.518000", "144819.521000", "144819.523000", "144819.526000", "144819.528000", "144819.530000", "144819.533000", "144819.535000", "144819.538000", "144819.540000", "144819.542000", "144819.545000", "144819.547000", "144819.550000", "144819.552000", "144819.554000", "144819.557000", "144819.559000", "144819.561000", "144819.564000", "144819.566000", "144819.569000", "144819.571000", "144819.574000", "144819.576000", "144819.578000", "144819.581000", "144819.583000", "144819.585000", "144819.588000", "144819.590000", "144819.593000", "144819.595000", "144839.518000", "144839.521000", "144839.523000", "144839.526000", "144839.535000", "144839.538000", "144839.540000", "144839.542000", "144839.545000", "144839.547000", "144839.549000", "144839.552000", "144839.554000", "144839.557000", "144839.559000", "144839.561000", "144839.564000", "144839.566000", "144839.569000", "144839.571000", "144839.573000", "144839.588000", "144839.590000", "144839.592000", "144839.595000", "144839.597000", "144839.600000", "144839.602000", "144839.604000", "144839.607000", "144839.609000", "144839.612000", "144859.518000", "144859.521000", "144859.523000", "144859.526000", "144859.528000", "144859.531000", "144859.533000", "144859.535000", "144859.538000", "144859.540000", "144859.542000", "144859.545000", "144859.547000", "144859.550000", "144859.552000", "144859.554000", "144859.557000", "144859.559000", "144859.562000", "144859.564000", "144859.566000", "144859.569000", "144859.571000", "144859.574000", "144859.576000", "144859.578000", "144859.581000", "144859.583000", "144859.590000", "144859.594000", "144859.596000", "144859.599000", "144859.601000", "144919.518000", "144919.521000", "144919.523000", "144919.526000", "144919.528000", "144919.530000", "144919.533000", "144919.535000", "144919.537000", "144919.540000", "144919.542000", "144919.545000", "144919.553000", "144919.555000", "144919.557000", "144919.560000", "144919.562000", "144919.565000", "144919.581000", "144919.583000", "144919.586000", "144919.588000", "144919.591000", "144919.593000", "144919.595000", "144919.598000", "144919.600000", "144919.603000", "144919.605000", "144919.608000", "144919.610000", "144919.612000", "144919.615000", "144939.519000", "144939.522000", "144939.524000", "144939.527000", "144939.529000", "144939.531000", "144939.534000", "144939.536000", "144939.539000", "144939.541000", "144939.543000", "144939.546000", "144939.548000", "144939.551000", "144939.553000", "144939.555000", "144939.558000", "144939.560000", "144939.563000", "144939.565000", "144939.567000", "144939.570000", "144939.572000", "144939.575000", "144939.577000", "144939.579000", "144939.582000", "144939.584000", "144939.587000", "144939.589000", "144939.591000", "144939.594000", "144939.596000", "144959.519000", "144959.522000", "144959.524000", "144959.527000", "144959.529000", "144959.531000", "144959.534000", "144959.537000", "144959.539000", "144959.542000", "144959.544000", "144959.547000", "144959.549000", "144959.552000", "144959.554000", "144959.556000", "144959.559000", "144959.561000", "144959.564000", "144959.566000", "144959.568000", "144959.571000", "144959.573000", "144959.576000", "144959.578000", "144959.580000", "144959.583000", "144959.585000", "144959.588000", "144959.590000", "144959.592000", "144959.595000", "145019.519000", "145019.522000", "145019.524000", "145019.527000", "145019.529000", "145019.532000", "145019.534000", "145019.537000", "145019.539000", "145019.541000", "145019.544000", "145019.546000", "145019.548000", "145019.551000", "145019.553000", "145019.556000", "145019.558000", "145019.560000", "145019.563000", "145019.565000", "145019.568000", "145019.570000", "145019.573000", "145019.575000", "145019.577000", "145019.580000", "145019.582000", "145019.585000", "145019.587000", "145019.589000", "145019.592000", "145019.594000", 