{"AcquisitionMatrixPE": 64, "AcquisitionNumber": 1, "AcquisitionTime": "14:35:56.707500", "BandwidthPerPixelPhaseEncode": 28.935, "BaseResolution": 64, "BodyPartExamined": "BRAIN", "CoilCombinationMethod": "Sum of Squares", "ConsistencyInfo": "N4_VE11E_LATEST_20181129", "ConversionSoftware": "dcm2niix", "ConversionSoftwareVersion": "v1.0.20230411", "DerivedVendorReportedEchoSpacing": 0.000540003, "DeviceSerialNumber": "166182", "DwellTime": 3.4e-06, "EchoTime": 0.032, "EchoTrainLength": 64, "EffectiveEchoSpacing": 0.000540003, "FlipAngle": 40, "HeudiconvVersion": "0.13.1", "ImageOrientationPatientDICOM": [0.991824, 0.12466, -0.0272975, -0.123011, 0.990852, 0.055502], "ImageOrientationText": "Tra>Cor(3.0)>Sag(-1.9)", "ImageType": ["ORIGINAL", "PRIMARY", "M", "ND", "NORM", "MOSAIC"], "ImagingFrequency": 123.257011, "InPlanePhaseEncodingDirectionDICOM": "COL", "InstitutionAddress": "PEARSE STREET .,City,District,IE,D2", "InstitutionName": "TCIN", "InstitutionalDepartmentName": "MRI", "MRAcquisitionType": "2D", "MagneticFieldStrength": 3, "Manufacturer": "Siemens", "ManufacturersModelName": "Prisma", "Modality": "MR", "MultibandAccelerationFactor": 4, "NonlinearGradientCorrection": false, "PartialFourier": 1, "PatientPosition": "HFS", "PercentPhaseFOV": 100, "PercentSampling": 100, "PhaseEncodingDirection": "j-", "PhaseEncodingSteps": 64, "PhaseResolution": 1, "PixelBandwidth": 2300, "ProcedureStepDescription": "Rhodri^Head BOLD", "ProtocolName": "cmrr_mbep2d_Pictures_AP_RDS", "PulseSequenceDetails": "%SiemensSeq%\\ep2d_bold", "ReceiveCoilActiveElements": "HC2,4,6,7;SC", "ReceiveCoilName": "SpecialPurpose_4", "ReconMatrixPE": 64, "RefLinesPE": 12, "RepetitionTime": 0.61, "SAR": 0.248384, "ScanOptions": "FS", "ScanningSequence": "EP", "SequenceName": "*epfid2d1_64", "SequenceVariant": "SK", "SeriesDescription": "cmrr_mbep2d_Pictures_AP_RDS", "SeriesNumber": 8, "ShimSetting": [-3664, -7473, 3894, 914, -145, 0, -13, -49], "SliceThickness": 3, "SliceTiming": [0.2625, 0, 0.3275, 0.065, 0.3925, 0.1325, 0.46, 0.1975, 0.525, 0.2625, 0, 0.3275, 0.065, 0.3925, 0.1325, 0.46, 0.1975, 0.525, 0.2625, 0, 0.3275, 0.065, 0.3925, 0.1325, 0.46, 0.1975, 0.525, 0.2625, 0, 0.3275, 0.065, 0.3925, 0.1325, 0.46, 0.1975, 0.525], "SoftwareVersions": "syngo MR E11", "SpacingBetweenSlices": 3.3, "StationName": "AWP166182", "TaskName": "pictures", "TotalReadoutTime": 0.0340202, "TxRefAmp": 234.856, "dcmmeta_affine": [[-2.9754717350006104, -0.3690323829650879, -0.11209015548229218, 108.7152099609375], [-0.3739814758300781, 2.9725563526153564, 0.17057818174362183, -95.8409194946289], [-0.08189255744218826, -0.1665061116218567, 3.2936816215515137, -84.98320770263672], [0.0, 0.0, 0.0, 1.0]], "dcmmeta_reorient_transform": [[0.0, -1.0, 0.0, 63.0], [1.0, 0.0, 0.0, 0.0], [0.0, 0.0, 1.0, 0.0], [0.0, 0.0, 0.0, 1.0]], "dcmmeta_shape": [64, 64, 36, 510], "dcmmeta_slice_dim": 2, "dcmmeta_version": 0.6, "global": {"const": {"AcquisitionMatrix": [64, 0, 0, 64], "AngioFlag": "N", "BitsAllocated": 16, "BitsStored": 12, "BodyPartExamined": "BRAIN", "Columns": 384, "EchoNumbers": 1, "EchoTime": 32.0, "EchoTrainLength": 64, "FlipAngle": 40.0, "HighBit": 11, "ImageOrientationPatient": [0.9918238793017, 0.12466049065047, -0.0272975185267, -0.1230107911959, 0.99085209245425, 0.05550203715547], "ImagePositionPatient": [-502.49645051005, -626.87616450192, -109.01125988349], "ImageType": ["ORIGINAL", "PRIMARY", "M", "ND", "NORM", "MOSAIC"], "ImagedNucleus": "1H", "ImagingFrequency": 123.257011, "InPlanePhaseEncodingDirection": "COL", "MRAcquisitionType": "2D", "MagneticFieldStrength": 3.0, "Manufacturer": "SIEMENS", "ManufacturerModelName": "Prisma", "Modality": "MR", "NumberOfAverages": 1.0, "NumberOfPhaseEncodingSteps": 64, "PercentPhaseFieldOfView": 100.0, "PercentSampling": 100.0, "PerformedProcedureStepStartTime": "142640.988000", "PhotometricInterpretation": "MONOCHROME2", "PixelBandwidth": 2300.0, "PixelRepresentation": 0, "PixelSpacing": [3.0, 3.0], "ProtocolName": "cmrr_mbep2d_Pictures_AP_RDS", "RepetitionTime": 610.0, "Rows": 384, "SAR": 0.24838353515764, "SamplesPerPixel": 1, "ScanOptions": "FS", "ScanningSequence": "EP", "SequenceName": "*epfid2d1_64", "SequenceVariant": "SK", "SeriesDescription": "cmrr_mbep2d_Pictures_AP_RDS", "SeriesNumber": 8, "SeriesTime": "143619.289000", "SliceLocation": -93.467242760977, "SliceThickness": 3.0, "SmallestImagePixelValue": 0, "SoftwareVersions": "syngo MR E11", "SpacingBetweenSlices": 3.3000000010761, "SpecificCharacterSet": "ISO_IR 100", "StudyID": "1", "StudyTime": "142640.901000", "TransmitCoilName": "Body", "VariableFlipAngleFlag": "N", "WindowCenterWidthExplanation": "Algo1"}, "slices": {}}, "time": {"samples": {"AcquisitionNumber": [1, 2, 3, 4, 5, 6, 7, 8, 9, 10, 11, 12, 13, 14, 15, 16, 17, 18, 19, 20, 21, 22, 23, 24, 25, 26, 27, 28, 29, 30, 31, 32, 33, 34, 35, 36, 37, 38, 39, 40, 41, 42, 43, 44, 45, 46, 47, 48, 49, 50, 51, 52, 53, 54, 55, 56, 57, 58, 59, 60, 61, 62, 63, 64, 65, 66, 67, 68, 69, 70, 71, 72, 73, 74, 75, 76, 77, 78, 79, 80, 81, 82, 83, 84, 85, 86, 87, 88, 89, 90, 91, 92, 93, 94, 95, 96, 97, 98, 99, 100, 101, 102, 103, 104, 105, 106, 107, 108, 109, 110, 111, 112, 113, 114, 115, 116, 117, 118, 119, 120, 121, 122, 123, 124, 125, 126, 127, 128, 129, 130, 131, 132, 133, 134, 135, 136, 137, 138, 139, 140, 141, 142, 143, 144, 145, 146, 147, 148, 149, 150, 151, 152, 153, 154, 155, 156, 157, 158, 159, 160, 161, 162, 163, 164, 165, 166, 167, 168, 169, 170, 171, 172, 173, 174, 175, 176, 177, 178, 179, 180, 181, 182, 183, 184, 185, 186, 187, 188, 189, 190, 191, 192, 193, 194, 195, 196, 197, 198, 199, 200, 201, 202, 203, 204, 205, 206, 207, 208, 209, 210, 211, 212, 213, 214, 215, 216, 217, 218, 219, 220, 221, 222, 223, 224, 225, 226, 227, 228, 229, 230, 231, 232, 233, 234, 235, 236, 237, 238, 239, 240, 241, 242, 243, 244, 245, 246, 247, 248, 249, 250, 251, 252, 253, 254, 255, 256, 257, 258, 259, 260, 261, 262, 263, 264, 265, 266, 267, 268, 269, 270, 271, 272, 273, 274, 275, 276, 277, 278, 279, 280, 281, 282, 283, 284, 285, 286, 287, 288, 289, 290, 291, 292, 293, 294, 295, 296, 297, 298, 299, 300, 301, 302, 303, 304, 305, 306, 307, 308, 309, 310, 311, 312, 313, 314, 315, 316, 317, 318, 319, 320, 321, 322, 323, 324, 325, 326, 327, 328, 329, 330, 331, 332, 333, 334, 335, 336, 337, 338, 339, 340, 341, 342, 343, 344, 345, 346, 347, 348, 349, 350, 351, 352, 353, 354, 355, 356, 357, 358, 359, 360, 361, 362, 363, 364, 365, 366, 367, 368, 369, 370, 371, 372, 373, 374, 375, 376, 377, 378, 379, 380, 381, 382, 383, 384, 385, 386, 387, 388, 389, 390, 391, 392, 393, 394, 395, 396, 397, 398, 399, 400, 401, 402, 403, 404, 405, 406, 407, 408, 409, 410, 411, 412, 413, 414, 415, 416, 417, 418, 419, 420, 421, 422, 423, 424, 425, 426, 427, 428, 429, 430, 431, 432, 433, 434, 435, 436, 437, 438, 439, 440, 441, 442, 443, 444, 445, 446, 447, 448, 449, 450, 451, 452, 453, 454, 455, 456, 457, 458, 459, 460, 461, 462, 463, 464, 465, 466, 467, 468, 469, 470, 471, 472, 473, 474, 475, 476, 477, 478, 479, 480, 481, 482, 483, 484, 485, 486, 487, 488, 489, 490, 491, 492, 493, 494, 495, 496, 497, 498, 499, 500, 501, 502, 503, 504, 505, 506, 507, 508, 509, 510], "AcquisitionTime": ["143556.707500", "143557.317500", "143557.927500", "143558.537500", "143559.147500", "143559.757500", "143600.367500", "143600.977500", "143601.587500", "143602.197500", "143602.807500", "143603.417500", "143604.027500", "143604.637500", "143605.247500", "143605.857500", "143606.467500", "143607.077500", "143607.687500", "143608.297500", "143608.907500", "143609.517500", "143610.127500", "143610.737500", "143611.347500", "143611.957500", "143612.567500", "143613.177500", "143613.787500", "143614.397500", "143615.007500", "143615.617500", "143616.227500", "143616.837500", "143617.447500", "143618.057500", "143618.667500", "143619.277500", "143619.887500", "143620.497500", "143621.107500", "143621.717500", "143622.327500", "143622.937500", "143623.547500", "143624.157500", "143624.767500", "143625.377500", "143625.987500", "143626.597500", "143627.207500", "143627.817500", "143628.427500", "143629.037500", "143629.647500", "143630.257500", "143630.867500", "143631.477500", "143632.087500", "143632.697500", "143633.307500", "143633.917500", "143634.527500", "143635.137500", "143635.747500", "143636.357500", "143636.967500", "143637.577500", "143638.187500", "143638.797500", "143639.407500", "143640.017500", "143640.627500", "143641.237500", "143641.847500", "143642.457500", "143643.067500", "143643.677500", "143644.287500", "143644.897500", "143645.507500", "143646.117500", "143646.727500", "143647.337500", "143647.947500", "143648.557500", "143649.167500", "143649.777500", "143650.387500", "143650.997500", "143651.607500", "143652.217500", "143652.827500", "143653.437500", "143654.047500", "143654.657500", "143655.267500", "143655.877500", "143656.487500", "143657.097500", "143657.707500", "143658.317500", "143658.927500", "143659.537500", "143700.147500", "143700.757500", "143701.367500", "143701.977500", "143702.587500", "143703.197500", "143703.807500", "143704.417500", "143705.027500", "143705.637500", "143706.247500", "143706.857500", "143707.467500", "143708.077500", "143708.687500", "143709.297500", "143709.907500", "143710.517500", "143711.127500", "143711.737500", "143712.347500", "143712.957500", "143713.567500", "143714.177500", "143714.787500", "143715.397500", "143716.007500", "143716.617500", "143717.227500", "143717.837500", "143718.447500", "143719.057500", "143719.667500", "143720.277500", "143720.887500", "143721.497500", "143722.107500", "143722.717500", "143723.327500", "143723.937500", "143724.547500", "143725.157500", "143725.767500", "143726.377500", "143726.987500", "143727.597500", "143728.207500", "143728.817500", "143729.427500", "143730.037500", "143730.647500", "143731.257500", "143731.867500", "143732.477500", "143733.087500", "143733.697500", "143734.307500", "143734.917500", "143735.527500", "143736.137500", "143736.747500", "143737.357500", "143737.967500", "143738.577500", "143739.187500", "143739.797500", "143740.407500", "143741.017500", "143741.627500", "143742.237500", "143742.847500", "143743.457500", "143744.067500", "143744.677500", "143745.287500", "143745.897500", "143746.507500", "143747.117500", "143747.727500", "143748.337500", "143748.947500", "143749.557500", "143750.167500", "143750.777500", "143751.387500", "143751.997500", "143752.607500", "143753.217500", "143753.827500", "143754.437500", "143755.047500", "143755.657500", "143756.267500", "143756.877500", "143757.487500", "143758.097500", "143758.707500", "143759.317500", "143759.927500", "143800.537500", "143801.147500", "143801.757500", "143802.367500", "143802.977500", "143803.587500", "143804.197500", "143804.807500", "143805.417500", "143806.027500", "143806.637500", "143807.247500", "143807.857500", "143808.467500", "143809.077500", "143809.687500", "143810.297500", "143810.907500", "143811.517500", "143812.127500", "143812.737500", "143813.347500", "143813.957500", "143814.567500", "143815.177500", "143815.787500", "143816.397500", "143817.007500", "143817.617500", "143818.227500", "143818.837500", "143819.447500", "143820.057500", "143820.667500", "143821.277500", "143821.887500", "143822.497500", "143823.107500", "143823.717500", "143824.327500", "143824.937500", "143825.547500", "143826.157500", "143826.767500", "143827.377500", "143827.987500", "143828.597500", "143829.207500", "143829.817500", "143830.427500", "143831.037500", "143831.647500", "143832.257500", "143832.867500", "143833.477500", "143834.087500", "143834.697500", "143835.307500", "143835.917500", "143836.527500", "143837.137500", "143837.747500", "143838.357500", "143838.967500", "143839.577500", "143840.187500", "143840.797500", "143841.407500", "143842.017500", "143842.627500", "143843.237500", "143843.847500", "143844.457500", "143845.067500", "143845.677500", "143846.287500", "143846.897500", "143847.507500", "143848.117500", "143848.727500", "143849.337500", "143849.947500", "143850.557500", "143851.167500", "143851.777500", "143852.387500", "143852.997500", "143853.607500", "143854.217500", "143854.827500", "143855.437500", "143856.047500", "143856.657500", "143857.267500", "143857.877500", "143858.487500", "143859.097500", "143859.707500", "143900.317500", "143900.927500", "143901.537500", "143902.147500", "143902.757500", "143903.367500", "143903.977500", "143904.587500", "143905.197500", "143905.807500", "143906.417500", "143907.027500", "143907.637500", "143908.247500", "143908.857500", "143909.467500", "143910.077500", "143910.687500", "143911.297500", "143911.907500", "143912.517500", "143913.127500", "143913.737500", "143914.347500", "143914.957500", "143915.567500", "143916.177500", "143916.787500", "143917.397500", "143918.007500", "143918.617500", "143919.227500", "143919.837500", "143920.447500", "143921.057500", "143921.667500", "143922.277500", "143922.887500", "143923.497500", "143924.107500", "143924.717500", "143925.327500", "143925.937500", "143926.547500", "143927.157500", "143927.767500", "143928.377500", "143928.987500", "143929.597500", "143930.207500", "143930.817500", "143931.427500", "143932.037500", "143932.647500", "143933.257500", "143933.867500", "143934.477500", "143935.087500", "143935.697500", "143936.307500", "143936.917500", "143937.527500", "143938.137500", "143938.747500", "143939.357500", "143939.967500", "143940.577500", "143941.187500", "143941.797500", "143942.407500", "143943.017500", "143943.627500", "143944.237500", "143944.847500", "143945.457500", "143946.067500", "143946.677500", "143947.287500", "143947.897500", "143948.507500", "143949.117500", "143949.727500", "143950.337500", "143950.947500", "143951.557500", "143952.167500", "143952.777500", "143953.387500", "143953.997500", "143954.607500", "143955.217500", "143955.827500", "143956.437500", "143957.047500", "143957.657500", "143958.267500", "143958.877500", "143959.487500", "144000.097500", "144000.707500", "144001.317500", "144001.927500", "144002.537500", "144003.147500", "144003.757500", "144004.367500", "144004.977500", "144005.587500", "144006.197500", "144006.807500", "144007.417500", "144008.027500", "144008.637500", "144009.247500", "144009.857500", "144010.467500", "144011.077500", "144011.687500", "144012.297500", "144012.907500", "144013.517500", "144014.127500", "144014.737500", "144015.347500", "144015.957500", "144016.567500", "144017.177500", "144017.787500", "144018.397500", "144019.007500", "144019.617500", "144020.227500", "144020.837500", "144021.447500", "144022.057500", "144022.667500", "144023.277500", "144023.887500", "144024.497500", "144025.107500", "144025.717500", "144026.327500", "144026.937500", "144027.547500", "144028.157500", "144028.767500", "144029.377500", "144029.987500", "144030.597500", "144031.207500", "144031.817500", "144032.427500", "144033.037500", "144033.647500", "144034.257500", "144034.867500", "144035.477500", "144036.087500", "144036.697500", "144037.307500", "144037.917500", "144038.527500", "144039.137500", "144039.747500", "144040.357500", "144040.967500", "144041.577500", "144042.187500", "144042.797500", "144043.407500", "144044.017500", "144044.627500", "144045.237500", "144045.847500", "144046.457500", "144047.067500", "144047.677500", "144048.287500", "144048.897500", "144049.507500", "144050.117500", "144050.727500", "144051.337500", "144051.947500", "144052.557500", "144053.167500", "144053.777500", "144054.387500", "144054.997500", "144055.607500", "144056.217500", "144056.827500", "144057.437500", "144058.047500", "144058.657500", "144059.267500", "144059.877500", "144100.487500", "144101.097500", "144101.707500", "144102.317500", "144102.927500", "144103.537500", "144104.147500", "144104.757500", "144105.367500", "144105.977500", "144106.587500", "144107.197500"], "ContentTime": ["143619.293000", "143619.296000", "143619.298000", "143619.301000", "143619.303000", "143619.336000", "143619.339000", "143619.341000", "143619.344000", "143619.346000", "143619.348000", "143619.351000", "143619.353000", "143619.355000", "143619.358000", "143619.360000", "143619.363000", "143619.365000", "143619.368000", "143619.370000", "143619.372000", "143619.375000", "143619.377000", "143619.380000", "143619.382000", "143619.384000", "143619.387000", "143619.393000", "143619.395000", "143619.398000", "143619.400000", "143619.402000", "143619.405000", "143619.407000", "143619.410000", "143619.412000", "143639.288000", "143639.291000", "143639.294000", "143639.296000", "143639.299000", "143639.301000", "143639.303000", "143639.306000", "143639.308000", "143639.311000", "143639.313000", "143639.315000", "143639.318000", "143639.320000", "143639.322000", "143639.328000", "143639.330000", "143639.332000", "143639.335000", "143639.337000", "143639.340000", "143639.342000", "143639.344000", "143639.347000", "143639.349000", "143639.352000", "143639.354000", "143639.358000", "143639.361000", "143639.363000", "143639.365000", "143639.368000", "143639.370000", "143659.288000", "143659.291000", "143659.293000", "143659.296000", "143659.298000", "143659.301000", "143659.304000", "143659.306000", "143659.309000", "143659.311000", "143659.313000", "143659.316000", "143659.318000", "143659.321000", "143659.323000", "143659.325000", "143659.328000", "143659.330000", "143659.333000", "143659.335000", "143659.337000", "143659.340000", "143659.343000", "143659.345000", "143659.348000", "143659.351000", "143659.353000", "143659.356000", "143659.359000", "143659.362000", "143659.365000", "143659.372000", "143659.374000", "143719.287000", "143719.290000", "143719.292000", "143719.295000", "143719.297000", "143719.299000", "143719.302000", "143719.304000", "143719.307000", "143719.309000", "143719.312000", "143719.314000", "143719.316000", "143719.319000", "143719.321000", "143719.323000", "143719.326000", "143719.328000", "143719.331000", "143719.333000", "143719.335000", "143719.338000", "143719.340000", "143719.342000", "143719.345000", "143719.347000", "143719.350000", "143719.352000", "143719.354000", "143719.357000", "143719.363000", "143719.365000", "143719.367000", "143739.287000", "143739.290000", "143739.293000", "143739.295000", "143739.298000", "143739.300000", "143739.303000", "143739.305000", "143739.307000", "143739.310000", "143739.312000", "143739.315000", "143739.317000", "143739.319000", "143739.322000", "143739.324000", "143739.327000", "143739.329000", "143739.332000", "143739.334000", "143739.336000", "143739.339000", "143739.341000", "143739.343000", "143739.346000", "143739.348000", "143739.351000", "143739.353000", "143739.355000", "143739.358000", "143739.360000", "143739.362000", "143759.288000", "143759.293000", "143759.295000", "143759.298000", "143759.300000", "143759.303000", "143759.305000", "143759.307000", "143759.310000", "143759.312000", "143759.315000", "143759.317000", "143759.320000", "143759.322000", "143759.325000", "143759.327000", "143759.330000", "143759.332000", "143759.334000", "143759.337000", "143759.339000", "143759.341000", "143759.344000", "143759.346000", "143759.349000", "143759.351000", "143759.353000", "143759.356000", "143759.358000", "143759.360000", "143759.363000", "143759.365000", "143759.367000", "143819.288000", "143819.291000", "143819.293000", "143819.296000", "143819.298000", "143819.301000", "143819.303000", "143819.305000", "143819.320000", "143819.323000", "143819.325000", "143819.328000", "143819.330000", "143819.332000", "143819.335000", "143819.337000", "143819.340000", "143819.342000", "143819.344000", "143819.347000", "143819.349000", "143819.351000", "143819.354000", "143819.356000", "143819.359000", "143819.361000", "143819.363000", "143819.366000", "143819.368000", "143819.371000", "143819.373000", "143819.375000", "143819.378000", "143839.288000", "143839.291000", "143839.293000", "143839.296000", "143839.298000", "143839.300000", "143839.303000", "143839.305000", "143839.308000", "143839.310000", "143839.312000", "143839.315000", "143839.317000", "143839.320000", "143839.322000", "143839.324000", "143839.327000", "143839.329000", "143839.332000", "143839.334000", "143839.336000", "143839.339000", "143839.341000", "143839.344000", "143839.346000", "143839.348000", "143839.351000", "143839.353000", "143839.356000", "143839.358000", "143839.361000", "143839.363000", "143839.366000", "143859.288000", "143859.291000", "143859.293000", "143859.296000", "143859.298000", "143859.300000", "143859.303000", "143859.305000", "143859.308000", "143859.310000", "143859.312000", "143859.315000", "143859.317000", "143859.320000", "143859.322000", "143859.324000", "143859.327000", "143859.329000", "143859.332000", "143859.334000", "143859.336000", "143859.339000", "143859.341000", "143859.344000", "143859.346000", "143859.349000", "143859.351000", "143859.353000", "143859.356000", "143859.358000", "143859.360000", "143859.363000", "143859.365000", "143919.288000", "143919.291000", "143919.293000", "143919.296000", "143919.298000", "143919.301000", "143919.303000", "143919.305000", "143919.308000", "143919.310000", "143919.312000", "143919.315000", "143919.317000", "143919.319000", "143919.322000", "143919.324000", "143919.327000", "143919.329000", "143919.332000", "143919.334000", "143919.337000", "143919.339000", "143919.341000", "143919.344000", "143919.346000", "143919.349000", "143919.351000", "143919.353000", "143919.356000", "143919.358000", "143919.360000", "143919.363000", "143939.287000", "143939.290000", "143939.292000", "143939.294000", "143939.297000", "143939.299000", "143939.302000", "143939.305000", "143939.307000", "143939.310000", "143939.312000", "143939.315000", "143939.317000", "143939.320000", "143939.322000", "143939.324000", "143939.327000", "143939.329000", "143939.332000", "143939.334000", "143939.336000", "143939.339000", "143939.341000", "143939.344000", "143939.346000", "143939.348000", "143939.351000", "143939.353000", "143939.356000", "143939.358000", "143939.361000", "143939.363000", "143939.366000", "143959.287000", "143959.290000", "143959.292000", "143959.295000", "143959.304000", "143959.306000", "143959.308000", "143959.311000", "143959.313000", "143959.315000", "143959.318000", "143959.320000", "143959.323000", "143959.325000", "143959.327000", "143959.330000", "143959.332000", "143959.335000", "143959.337000", "143959.339000", "143959.342000", "143959.344000", "143959.347000", "143959.349000", "143959.351000", "143959.354000", "143959.356000", "143959.359000", "143959.361000", "143959.363000", "143959.366000", "143959.368000", "143959.371000", "144019.288000", "144019.291000", "144019.293000", "144019.296000", "144019.298000", "144019.301000", "144019.303000", "144019.305000", "144019.308000", "144019.310000", "144019.313000", "144019.315000", "144019.317000", "144019.320000", "144019.322000", "144019.324000", "144019.327000", "144019.329000", "144019.332000", "144019.334000", "144019.337000", "144019.339000", "144019.341000", "144019.344000", "144019.346000", "144019.349000", "144019.351000", "144019.353000", "144019.356000", "144019.358000", "144019.360000", "144019.363000", "144019.365000", "144039.289000", "144039.291000", "144039.294000", "144039.296000", "144039.298000", "144039.301000", "144039.303000", "144039.306000", "144039.308000", "144039.311000", "144039.313000", "144039.315000", "144039.318000", "144039.320000", "144039.323000", "144039.325000", "144039.328000", "144039.330000", "144039.332000", "144039.335000", "144039.337000", "144039.340000", "144039.342000", "144039.344000", "144039.373000", "144039.375000", "144039.377000", "144039.380000", "144039.382000", "144039.385000", "144039.387000", "144039.389000", "144039.392000", "144059.288000", "144059.291000", "144059.293000", "144059.295000", "144059.298000", "144059.300000", "144059.303000", "144059.305000", "144059.308000", "144059.320000", "144059.322000", "144059.324000", "144059.327000", "144059.329000", "144059.332000", "144059.334000", "144059.336000", "144059.339000", "144059.341000", "144059.344000", "144059.346000", "144059.348000", "144059.351000", "144059.353000", "144059.356000", "144059.358000", "144059.360000", "144059.363000", "144059.365000", "144059.368000", "144059.370000", "144059.373000", "144107.886000", "144107.888000", "144107.891000", "144107.893000", "144107.896000", "144107.898000", "144107.901000", "144107.903000", "144107.905000", "144107.908000", "144107.910000", "144107.913000", "144107.915000", "144107.917000", "144107.920000"], "InstanceCreationTime": ["143619.293000", "143619.296000", "143619.298000", "143619.301000", "143619.303000", "143619.336000", "143619.339000", "143619.341000", "143619.344000", "143619.346000", "143619.348000", "143619.351000", "143619.353000", "143619.355000", "143619.358000", "143619.360000", "143619.363000", "143619.365000", "143619.368000", "143619.370000", "143619.372000", "143619.375000", "143619.377000", "143619.380000", "143619.382000", "143619.384000", "143619.387000", "143619.393000", "143619.395000", "143619.398000", "143619.400000", "143619.402000", "143619.405000", "143619.407000", "143619.410000", "143619.412000", "143639.288000", "143639.291000", "143639.294000", "143639.296000", "143639.299000", "143639.301000", "143639.303000", "143639.306000", "143639.308000", "143639.311000", "143639.313000", "143639.315000", "143639.318000", "143639.320000", "143639.322000", "143639.328000", "143639.330000", "143639.332000", "143639.335000", "143639.337000", "143639.340000", "143639.342000", "143639.344000", "143639.347000", "143639.349000", "143639.352000", "143639.354000", "143639.358000", "143639.361000", "143639.363000", "143639.365000", "143639.368000", "143639.370000", "143659.288000", "143659.291000", "143659.293000", "143659.296000", "143659.298000", "143659.301000", "143659.304000", "143659.306000", "143659.309000", "143659.311000", "143659.313000", "143659.316000", "143659.318000", "143659.321000", "143659.323000", "143659.325000", "143659.328000", "143659.330000", "143659.333000", "143659.335000", "143659.337000", "143659.340000", "143659.343000", "143659.345000", "143659.348000", "143659.351000", "143659.353000", "143659.356000", "143659.359000", "143659.362000", "143659.365000", "143659.372000", "143659.374000", "143719.287000", "143719.290000", "143719.292000", "143719.295000", "143719.297000", "143719.299000", "143719.302000", "143719.304000", "143719.307000", "143719.309000", "143719.312000", "143719.314000", "143719.316000", "143719.319000", "143719.321000", "143719.323000", "143719.326000", "143719.328000", "143719.331000", "143719.333000", "143719.335000", "143719.338000", "143719.340000", "143719.342000", "143719.345000", "143719.347000", "143719.350000", "143719.352000", "143719.354000", "143719.357000", "143719.363000", "143719.365000", "143719.367000", "143739.287000", "143739.290000", "143739.293000", "143739.295000", "143739.298000", "143739.300000", "143739.303000", "143739.305000", "143739.307000", "143739.310000", "143739.312000", "143739.315000", "143739.317000", "143739.319000", "143739.322000", "143739.324000", "143739.327000", "143739.329000", "143739.332000", "143739.334000", "143739.336000", "143739.339000", "143739.341000", "143739.343000", "143739.346000", "143739.348000", "143739.351000", "143739.353000", "143739.355000", "143739.358000", "143739.360000", "143739.362000", "143759.288000", "143759.293000", "143759.295000", "143759.298000", "143759.300000", "143759.303000", "143759.305000", "143759.307000", "143759.310000", "143759.312000", "143759.315000", "143759.317000", "143759.320000", "143759.322000", "143759.325000", "143759.327000", "143759.330000", "143759.332000", "143759.334000", "143759.337000", "143759.339000", "143759.341000", "143759.344000", "143759.346000", "143759.349000", "143759.351000", "143759.353000", "143759.356000", "143759.358000", "143759.360000", "143759.363000", "143759.365000", "143759.367000", "143819.288000", "143819.291000", "143819.293000", "143819.296000", "143819.298000", "143819.301000", "143819.303000", "143819.305000", "143819.320000", "143819.323000", "143819.325000", "143819.328000", "143819.330000", "143819.332000", "143819.335000", "143819.337000", "143819.340000", "143819.342000", "143819.344000", "143819.347000", "143819.349000", "143819.351000", "143819.354000", "143819.356000", "143819.359000", "143819.361000", "143819.363000", "143819.366000", "143819.368000", "143819.371000", "143819.373000", "143819.375000", "143819.378000", "143839.288000", "143839.291000", "143839.293000", "143839.296000", "143839.298000", "143839.300000", "143839.303000", "143839.305000", "143839.308000", "143839.310000", "143839.312000", "143839.315000", "143839.317000", "143839.320000", "143839.322000", "143839.324000", "143839.327000", "143839.329000", "143839.332000", "143839.334000", "143839.336000", "143839.339000", "143839.341000", "143839.344000", "143839.346000", "143839.348000", "143839.351000", "143839.353000", "143839.356000", "143839.358000", "143839.361000", "143839.363000", "143839.366000", "143859.288000", "143859.291000", "143859.293000", "143859.296000", "143859.298000", "143859.300000", "143859.303000", "143859.305000", "143859.308000", "143859.310000", "143859.312000", "143859.315000", "143859.317000", "143859.320000", "143859.322000", "143859.324000", "143859.327000", "143859.329000", "143859.332000", "143859.334000", "143859.336000", "143859.339000", "143859.341000", "143859.344000", "143859.346000", "143859.349000", "143859.351000", "143859.353000", "143859.356000", "143859.358000", "143859.360000", "143859.363000", "143859.365000", "143919.288000", "143919.291000", "143919.293000", "143919.296000", "143919.298000", "143919.301000", "143919.303000", "143919.305000", "143919.308000", "143919.310000", "143919.312000", "143919.315000", "143919.317000", "143919.319000", "143919.322000", "143919.324000", "143919.327000", "143919.329000", "143919.332000", "143919.334000", "143919.337000