{"AcquisitionMatrixPE": 64, "AcquisitionNumber": 1, "AcquisitionTime": "14:19:28.707500", "BandwidthPerPixelPhaseEncode": 28.935, "BaseResolution": 64, "BodyPartExamined": "BRAIN", "CoilCombinationMethod": "Sum of Squares", "ConsistencyInfo": "N4_VE11E_LATEST_20181129", "ConversionSoftware": "dcm2niix", "ConversionSoftwareVersion": "v1.0.20230411", "DerivedVendorReportedEchoSpacing": 0.000540003, "DeviceSerialNumber": "166182", "DwellTime": 3.4e-06, "EchoTime": 0.032, "EchoTrainLength": 64, "EffectiveEchoSpacing": 0.000540003, "FlipAngle": 40, "HeudiconvVersion": "0.13.1", "ImageOrientationPatientDICOM": [0.999049, 0.00504645, -0.0433048, -0.00889297, 0.995983, -0.0890971], "ImageOrientationText": "Tra>Cor(-5.1)>Sag(-2.4)", "ImageType": ["ORIGINAL", "PRIMARY", "M", "ND", "NORM", "MOSAIC"], "ImagingFrequency": 123.255908, "InPlanePhaseEncodingDirectionDICOM": "COL", "InstitutionAddress": "PEARSE STREET .,City,District,IE,D2", "InstitutionName": "TCIN", "InstitutionalDepartmentName": "MRI", "MRAcquisitionType": "2D", "MagneticFieldStrength": 3, "Manufacturer": "Siemens", "ManufacturersModelName": "Prisma", "Modality": "MR", "MultibandAccelerationFactor": 4, "NonlinearGradientCorrection": false, "PartialFourier": 1, "PatientPosition": "HFS", "PercentPhaseFOV": 100, "PercentSampling": 100, "PhaseEncodingDirection": "j-", "PhaseEncodingSteps": 64, "PhaseResolution": 1, "PixelBandwidth": 2300, "ProcedureStepDescription": "Rhodri^Head BOLD", "ProtocolName": "cmrr_mbep2d_Pictures_AP_RDS", "PulseSequenceDetails": "%SiemensSeq%\\ep2d_bold", "ReceiveCoilActiveElements": "HC2,4,6,7;SC", "ReceiveCoilName": "SpecialPurpose_4", "ReconMatrixPE": 64, "RefLinesPE": 12, "RepetitionTime": 0.61, "SAR": 0.3083, "ScanOptions": "FS", "ScanningSequence": "EP", "SequenceName": "*epfid2d1_64", "SequenceVariant": "SK", "SeriesDescription": "cmrr_mbep2d_Pictures_AP_RDS", "SeriesNumber": 8, "ShimSetting": [-3683, -7517, 3984, 1169, -251, 305, 166, 133], "SliceThickness": 3, "SliceTiming": [0.2625, 0, 0.3275, 0.0675, 0.395, 0.1325, 0.46, 0.1975, 0.525, 0.2625, 0, 0.3275, 0.0675, 0.395, 0.1325, 0.46, 0.1975, 0.525, 0.2625, 0, 0.3275, 0.0675, 0.395, 0.1325, 0.46, 0.1975, 0.525, 0.2625, 0, 0.3275, 0.0675, 0.395, 0.1325, 0.46, 0.1975, 0.525], "SoftwareVersions": "syngo MR E11", "SpacingBetweenSlices": 3.3, "StationName": "AWP166182", "TaskName": "pictures", "TotalReadoutTime": 0.0340202, "TxRefAmp": 228.384, "dcmmeta_affine": [[-2.997147560119629, -0.02667890675365925, -0.14084820449352264, 99.47364807128906], [-0.015139346942305565, 2.987949848175049, -0.29501157999038696, -102.54263305664062], [-0.1299145370721817, 0.26729118824005127, 3.2837677001953125, -81.62179565429688], [0.0, 0.0, 0.0, 1.0]], "dcmmeta_reorient_transform": [[0.0, -1.0, 0.0, 63.0], [1.0, 0.0, 0.0, 0.0], [0.0, 0.0, 1.0, 0.0], [0.0, 0.0, 0.0, 1.0]], "dcmmeta_shape": [64, 64, 36, 510], "dcmmeta_slice_dim": 2, "dcmmeta_version": 0.6, "global": {"const": {"AcquisitionMatrix": [64, 0, 0, 64], "AngioFlag": "N", "BitsAllocated": 16, "BitsStored": 12, "BodyPartExamined": "BRAIN", "Columns": 384, "EchoNumbers": 1, "EchoTime": 32.0, "EchoTrainLength": 64, "FlipAngle": 40.0, "HighBit": 11, "ImageOrientationPatient": [0.99904915986108, 0.00504644907289, -0.0433048442165, -0.0088929688641, 0.99598324728077, -0.0890970607868], "ImagePositionPatient": [-573.06785029731, -566.1924512606, -1.2295370808904], "ImageType": ["ORIGINAL", "PRIMARY", "M", "ND", "NORM", "MOSAIC"], "ImagedNucleus": "1H", "ImagingFrequency": 123.255908, "InPlanePhaseEncodingDirection": "COL", "MRAcquisitionType": "2D", "MagneticFieldStrength": 3.0, "Manufacturer": "SIEMENS", "ManufacturerModelName": "Prisma", "Modality": "MR", "NumberOfAverages": 1.0, "NumberOfPhaseEncodingSteps": 64, "PercentPhaseFieldOfView": 100.0, "PercentSampling": 100.0, "PerformedProcedureStepStartTime": "140503.824000", "PhotometricInterpretation": "MONOCHROME2", "PixelBandwidth": 2300.0, "PixelRepresentation": 0, "PixelSpacing": [3.0, 3.0], "ProtocolName": "cmrr_mbep2d_Pictures_AP_RDS", "RepetitionTime": 610.0, "Rows": 384, "SAR": 0.3083001249404, "SamplesPerPixel": 1, "ScanOptions": "FS", "ScanningSequence": "EP", "SequenceName": "*epfid2d1_64", "SequenceVariant": "SK", "SeriesDescription": "cmrr_mbep2d_Pictures_AP_RDS", "SeriesNumber": 8, "SeriesTime": "141951.059000", "SliceLocation": -76.298918650404, "SliceThickness": 3.0, "SmallestImagePixelValue": 0, "SoftwareVersions": "syngo MR E11", "SpacingBetweenSlices": 3.2999999451493, "SpecificCharacterSet": "ISO_IR 100", "StudyID": "1", "StudyTime": "140503.700000", "TransmitCoilName": "Body", "VariableFlipAngleFlag": "N", "WindowCenterWidthExplanation": "Algo1"}, "slices": {}}, "time": {"samples": {"AcquisitionNumber": [1, 2, 3, 4, 5, 6, 7, 8, 9, 10, 11, 12, 13, 14, 15, 16, 17, 18, 19, 20, 21, 22, 23, 24, 25, 26, 27, 28, 29, 30, 31, 32, 33, 34, 35, 36, 37, 38, 39, 40, 41, 42, 43, 44, 45, 46, 47, 48, 49, 50, 51, 52, 53, 54, 55, 56, 57, 58, 59, 60, 61, 62, 63, 64, 65, 66, 67, 68, 69, 70, 71, 72, 73, 74, 75, 76, 77, 78, 79, 80, 81, 82, 83, 84, 85, 86, 87, 88, 89, 90, 91, 92, 93, 94, 95, 96, 97, 98, 99, 100, 101, 102, 103, 104, 105, 106, 107, 108, 109, 110, 111, 112, 113, 114, 115, 116, 117, 118, 119, 120, 121, 122, 123, 124, 125, 126, 127, 128, 129, 130, 131, 132, 133, 134, 135, 136, 137, 138, 139, 140, 141, 142, 143, 144, 145, 146, 147, 148, 149, 150, 151, 152, 153, 154, 155, 156, 157, 158, 159, 160, 161, 162, 163, 164, 165, 166, 167, 168, 169, 170, 171, 172, 173, 174, 175, 176, 177, 178, 179, 180, 181, 182, 183, 184, 185, 186, 187, 188, 189, 190, 191, 192, 193, 194, 195, 196, 197, 198, 199, 200, 201, 202, 203, 204, 205, 206, 207, 208, 209, 210, 211, 212, 213, 214, 215, 216, 217, 218, 219, 220, 221, 222, 223, 224, 225, 226, 227, 228, 229, 230, 231, 232, 233, 234, 235, 236, 237, 238, 239, 240, 241, 242, 243, 244, 245, 246, 247, 248, 249, 250, 251, 252, 253, 254, 255, 256, 257, 258, 259, 260, 261, 262, 263, 264, 265, 266, 267, 268, 269, 270, 271, 272, 273, 274, 275, 276, 277, 278, 279, 280, 281, 282, 283, 284, 285, 286, 287, 288, 289, 290, 291, 292, 293, 294, 295, 296, 297, 298, 299, 300, 301, 302, 303, 304, 305, 306, 307, 308, 309, 310, 311, 312, 313, 314, 315, 316, 317, 318, 319, 320, 321, 322, 323, 324, 325, 326, 327, 328, 329, 330, 331, 332, 333, 334, 335, 336, 337, 338, 339, 340, 341, 342, 343, 344, 345, 346, 347, 348, 349, 350, 351, 352, 353, 354, 355, 356, 357, 358, 359, 360, 361, 362, 363, 364, 365, 366, 367, 368, 369, 370, 371, 372, 373, 374, 375, 376, 377, 378, 379, 380, 381, 382, 383, 384, 385, 386, 387, 388, 389, 390, 391, 392, 393, 394, 395, 396, 397, 398, 399, 400, 401, 402, 403, 404, 405, 406, 407, 408, 409, 410, 411, 412, 413, 414, 415, 416, 417, 418, 419, 420, 421, 422, 423, 424, 425, 426, 427, 428, 429, 430, 431, 432, 433, 434, 435, 436, 437, 438, 439, 440, 441, 442, 443, 444, 445, 446, 447, 448, 449, 450, 451, 452, 453, 454, 455, 456, 457, 458, 459, 460, 461, 462, 463, 464, 465, 466, 467, 468, 469, 470, 471, 472, 473, 474, 475, 476, 477, 478, 479, 480, 481, 482, 483, 484, 485, 486, 487, 488, 489, 490, 491, 492, 493, 494, 495, 496, 497, 498, 499, 500, 501, 502, 503, 504, 505, 506, 507, 508, 509, 510], "AcquisitionTime": ["141928.707500", "141929.317500", "141929.927500", "141930.537500", "141931.147500", "141931.757500", "141932.367500", "141932.977500", "141933.587500", "141934.197500", "141934.807500", "141935.417500", "141936.027500", "141936.637500", "141937.247500", "141937.857500", "141938.467500", "141939.077500", "141939.687500", "141940.297500", "141940.907500", "141941.517500", "141942.127500", "141942.737500", "141943.347500", "141943.957500", "141944.567500", "141945.177500", "141945.787500", "141946.397500", "141947.007500", "141947.617500", "141948.227500", "141948.837500", "141949.447500", "141950.057500", "141950.667500", "141951.277500", "141951.887500", "141952.497500", "141953.107500", "141953.717500", "141954.327500", "141954.937500", "141955.547500", "141956.157500", "141956.767500", "141957.377500", "141957.987500", "141958.597500", "141959.207500", "141959.817500", "142000.427500", "142001.037500", "142001.647500", "142002.257500", "142002.867500", "142003.477500", "142004.087500", "142004.697500", "142005.307500", "142005.917500", "142006.527500", "142007.137500", "142007.747500", "142008.357500", "142008.967500", "142009.577500", "142010.187500", "142010.797500", "142011.407500", "142012.017500", "142012.627500", "142013.237500", "142013.847500", "142014.457500", "142015.067500", "142015.677500", "142016.287500", "142016.897500", "142017.507500", "142018.117500", "142018.727500", "142019.337500", "142019.947500", "142020.557500", "142021.167500", "142021.777500", "142022.387500", "142022.997500", "142023.607500", "142024.217500", "142024.827500", "142025.437500", "142026.047500", "142026.657500", "142027.267500", "142027.877500", "142028.487500", "142029.097500", "142029.707500", "142030.317500", "142030.927500", "142031.537500", "142032.147500", "142032.757500", "142033.367500", "142033.977500", "142034.587500", "142035.197500", "142035.807500", "142036.417500", "142037.027500", "142037.637500", "142038.247500", "142038.857500", "142039.467500", "142040.077500", "142040.687500", "142041.297500", "142041.907500", "142042.517500", "142043.127500", "142043.737500", "142044.347500", "142044.957500", "142045.567500", "142046.177500", "142046.787500", "142047.397500", "142048.007500", "142048.617500", "142049.227500", "142049.837500", "142050.447500", "142051.057500", "142051.667500", "142052.277500", "142052.887500", "142053.497500", "142054.107500", "142054.717500", "142055.327500", "142055.937500", "142056.547500", "142057.157500", "142057.767500", "142058.377500", "142058.987500", "142059.597500", "142100.207500", "142100.817500", "142101.427500", "142102.037500", "142102.647500", "142103.257500", "142103.867500", "142104.477500", "142105.087500", "142105.697500", "142106.307500", "142106.917500", "142107.527500", "142108.137500", "142108.747500", "142109.357500", "142109.967500", "142110.577500", "142111.187500", "142111.797500", "142112.407500", "142113.017500", "142113.627500", "142114.237500", "142114.847500", "142115.457500", "142116.067500", "142116.677500", "142117.287500", "142117.897500", "142118.507500", "142119.117500", "142119.727500", "142120.337500", "142120.947500", "142121.557500", "142122.167500", "142122.777500", "142123.387500", "142123.997500", "142124.607500", "142125.217500", "142125.827500", "142126.437500", "142127.047500", "142127.657500", "142128.267500", "142128.877500", "142129.487500", "142130.097500", "142130.707500", "142131.317500", "142131.927500", "142132.537500", "142133.147500", "142133.757500", "142134.367500", "142134.977500", "142135.587500", "142136.197500", "142136.807500", "142137.417500", "142138.027500", "142138.637500", "142139.247500", "142139.857500", "142140.467500", "142141.077500", "142141.687500", "142142.297500", "142142.907500", "142143.517500", "142144.127500", "142144.737500", "142145.347500", "142145.957500", "142146.567500", "142147.177500", "142147.787500", "142148.397500", "142149.007500", "142149.617500", "142150.227500", "142150.837500", "142151.447500", "142152.057500", "142152.667500", "142153.277500", "142153.887500", "142154.497500", "142155.107500", "142155.717500", "142156.327500", "142156.937500", "142157.547500", "142158.157500", "142158.767500", "142159.377500", "142159.987500", "142200.597500", "142201.207500", "142201.817500", "142202.427500", "142203.037500", "142203.647500", "142204.257500", "142204.867500", "142205.477500", "142206.087500", "142206.697500", "142207.307500", "142207.917500", "142208.527500", "142209.137500", "142209.747500", "142210.357500", "142210.967500", "142211.577500", "142212.187500", "142212.797500", "142213.407500", "142214.017500", "142214.627500", "142215.237500", "142215.847500", "142216.457500", "142217.067500", "142217.677500", "142218.287500", "142218.897500", "142219.507500", "142220.117500", "142220.727500", "142221.337500", "142221.947500", "142222.557500", "142223.167500", "142223.777500", "142224.387500", "142224.997500", "142225.607500", "142226.217500", "142226.827500", "142227.437500", "142228.047500", "142228.657500", "142229.267500", "142229.877500", "142230.487500", "142231.097500", "142231.707500", "142232.317500", "142232.927500", "142233.537500", "142234.147500", "142234.757500", "142235.367500", "142235.977500", "142236.587500", "142237.197500", "142237.807500", "142238.417500", "142239.027500", "142239.637500", "142240.247500", "142240.857500", "142241.467500", "142242.077500", "142242.687500", "142243.297500", "142243.907500", "142244.517500", "142245.127500", "142245.737500", "142246.347500", "142246.957500", "142247.567500", "142248.177500", "142248.787500", "142249.397500", "142250.007500", "142250.617500", "142251.227500", "142251.837500", "142252.447500", "142253.057500", "142253.667500", "142254.277500", "142254.887500", "142255.497500", "142256.107500", "142256.717500", "142257.327500", "142257.937500", "142258.547500", "142259.157500", "142259.767500", "142300.377500", "142300.987500", "142301.597500", "142302.207500", "142302.817500", "142303.427500", "142304.037500", "142304.647500", "142305.257500", "142305.867500", "142306.477500", "142307.087500", "142307.697500", "142308.307500", "142308.917500", "142309.527500", "142310.137500", "142310.747500", "142311.357500", "142311.967500", "142312.577500", "142313.187500", "142313.797500", "142314.407500", "142315.017500", "142315.627500", "142316.237500", "142316.847500", "142317.457500", "142318.067500", "142318.677500", "142319.287500", "142319.897500", "142320.507500", "142321.117500", "142321.727500", "142322.337500", "142322.947500", "142323.557500", "142324.167500", "142324.777500", "142325.387500", "142325.997500", "142326.607500", "142327.217500", "142327.827500", "142328.437500", "142329.047500", "142329.657500", "142330.267500", "142330.877500", "142331.487500", "142332.097500", "142332.707500", "142333.317500", "142333.927500", "142334.537500", "142335.147500", "142335.757500", "142336.367500", "142336.977500", "142337.587500", "142338.197500", "142338.807500", "142339.417500", "142340.027500", "142340.637500", "142341.247500", "142341.857500", "142342.467500", "142343.077500", "142343.687500", "142344.297500", "142344.907500", "142345.517500", "142346.127500", "142346.737500", "142347.347500", "142347.957500", "142348.567500", "142349.177500", "142349.787500", "142350.397500", "142351.007500", "142351.617500", "142352.227500", "142352.837500", "142353.447500", "142354.057500", "142354.667500", "142355.277500", "142355.887500", "142356.497500", "142357.107500", "142357.717500", "142358.327500", "142358.937500", "142359.547500", "142400.157500", "142400.767500", "142401.377500", "142401.987500", "142402.597500", "142403.207500", "142403.817500", "142404.427500", "142405.037500", "142405.647500", "142406.257500", "142406.867500", "142407.477500", "142408.087500", "142408.697500", "142409.307500", "142409.917500", "142410.527500", "142411.137500", "142411.747500", "142412.357500", "142412.967500", "142413.577500", "142414.187500", "142414.797500", "142415.407500", "142416.017500", "142416.627500", "142417.237500", "142417.847500", "142418.457500", "142419.067500", "142419.677500", "142420.287500", "142420.897500", "142421.507500", "142422.117500", "142422.727500", "142423.337500", "142423.947500", "142424.557500", "142425.167500", "142425.777500", "142426.387500", "142426.997500", "142427.607500", "142428.217500", "142428.827500", "142429.437500", "142430.047500", "142430.657500", "142431.267500", "142431.877500", "142432.487500", "142433.097500", "142433.707500", "142434.317500", "142434.927500", "142435.537500", "142436.147500", "142436.757500", "142437.367500", "142437.977500", "142438.587500", "142439.197500"], "ContentTime": ["141951.063000", "141951.066000", "141951.068000", "141951.070000", "141951.073000", "141951.075000", "141951.084000", "141951.086000", "141951.089000", "141951.091000", "141951.094000", "141951.096000", "141951.098000", "141951.101000", "141951.103000", "141951.106000", "141951.108000", "141951.111000", "141951.113000", "141951.115000", "141951.118000", "141951.120000", "141951.123000", "141951.125000", "141951.127000", "141951.130000", "141951.132000", "141951.135000", "141951.137000", "141951.139000", "141951.142000", "141951.144000", "141951.147000", "141951.149000", "141951.152000", "141951.154000", "142011.058000", "142011.061000", "142011.063000", "142011.066000", "142011.068000", "142011.070000", "142011.073000", "142011.075000", "142011.078000", "142011.081000", "142011.083000", "142011.086000", "142011.088000", "142011.091000", "142011.093000", "142011.096000", "142011.098000", "142011.101000", "142011.103000", "142011.105000", "142011.108000", "142011.110000", "142011.113000", "142011.115000", "142011.118000", "142011.120000", "142011.123000", "142011.125000", "142011.128000", "142011.130000", "142011.132000", "142011.135000", "142031.058000", "142031.061000", "142031.063000", "142031.065000", "142031.068000", "142031.070000", "142031.073000", "142031.075000", "142031.077000", "142031.080000", "142031.082000", "142031.085000", "142031.087000", "142031.090000", "142031.092000", "142031.094000", "142031.097000", "142031.099000", "142031.102000", "142031.104000", "142031.113000", "142031.115000", "142031.117000", "142031.120000", "142031.122000", "142031.124000", "142031.127000", "142031.129000", "142031.132000", "142031.134000", "142031.145000", "142031.148000", "142031.150000", "142051.058000", "142051.061000", "142051.063000", "142051.066000", "142051.068000", "142051.070000", "142051.073000", "142051.075000", "142051.078000", "142051.080000", "142051.083000", "142051.085000", "142051.087000", "142051.090000", "142051.092000", "142051.095000", "142051.097000", "142051.100000", "142051.102000", "142051.105000", "142051.107000", "142051.109000", "142051.112000", "142051.114000", "142051.117000", "142051.119000", "142051.121000", "142051.124000", "142051.126000", "142051.129000", "142051.131000", "142051.133000", "142051.136000", "142111.058000", "142111.061000", "142111.063000", "142111.066000", "142111.069000", "142111.071000", "142111.074000", "142111.076000", "142111.078000", "142111.081000", "142111.083000", "142111.086000", "142111.088000", "142111.091000", "142111.093000", "142111.096000", "142111.098000", "142111.100000", "142111.103000", "142111.105000", "142111.108000", "142111.110000", "142111.113000", "142111.115000", "142111.118000", "142111.120000", "142111.122000", "142111.125000", "142111.127000", "142111.130000", "142111.132000", "142111.135000", "142111.137000", "142131.058000", "142131.061000", "142131.063000", "142131.066000", "142131.068000", "142131.070000", "142131.077000", "142131.080000", "142131.082000", "142131.085000", "142131.087000", "142131.090000", "142131.092000", "142131.094000", "142131.097000", "142131.099000", "142131.102000", "142131.104000", "142131.107000", "142131.109000", "142131.111000", "142131.114000", "142131.116000", "142131.119000", "142131.121000", "142131.124000", "142131.126000", "142131.128000", "142131.131000", "142131.133000", "142131.136000", "142131.138000", "142151.058000", "142151.061000", "142151.063000", "142151.066000", "142151.068000", "142151.071000", "142151.073000", "142151.076000", "142151.079000", "142151.082000", "142151.084000", "142151.086000", "142151.089000", "142151.091000", "142151.094000", "142151.096000", "142151.098000", "142151.101000", "142151.103000", "142151.106000", "142151.109000", "142151.111000", "142151.113000", "142151.116000", "142151.118000", "142151.121000", "142151.123000", "142151.125000", "142151.128000", "142151.130000", "142151.133000", "142151.135000", "142151.138000", "142211.058000", "142211.061000", "142211.063000", "142211.066000", "142211.068000", "142211.071000", "142211.073000", "142211.075000", "142211.078000", "142211.080000", "142211.083000", "142211.085000", "142211.087000", "142211.090000", "142211.092000", "142211.095000", "142211.097000", "142211.100000", "142211.102000", "142211.104000", "142211.107000", "142211.109000", "142211.112000", "142211.114000", "142211.116000", "142211.119000", "142211.121000", "142211.124000", "142211.126000", "142211.128000", "142211.131000", "142211.133000", "142211.135000", "142231.058000", "142231.061000", "142231.064000", "142231.066000", "142231.068000", "142231.071000", "142231.073000", "142231.076000", "142231.078000", "142231.081000", "142231.083000", "142231.085000", "142231.088000", "142231.090000", "142231.093000", "142231.095000", "142231.097000", "142231.100000", "142231.102000", "142231.105000", "142231.107000", "142231.109000", "142231.112000", "142231.114000", "142231.117000", "142231.119000", "142231.121000", "142231.124000", "142231.126000", "142231.129000", "142231.132000", "142231.134000", "142231.136000", "142251.058000", "142251.061000", "142251.063000", "142251.066000", "142251.068000", "142251.070000", "142251.073000", "142251.075000", "142251.078000", "142251.080000", "142251.082000", "142251.085000", "142251.087000", "142251.090000", "142251.092000", "142251.095000", "142251.097000", "142251.100000", "142251.102000", "142251.104000", "142251.107000", "142251.109000", "142251.112000", "142251.114000", "142251.117000", "142251.119000", "142251.121000", "142251.124000", "142251.127000", "142251.129000", "142251.131000", "142251.134000", "142251.136000", "142311.058000", "142311.061000", "142311.064000", "142311.066000", "142311.069000", "142311.071000", "142311.074000", "142311.076000", "142311.078000", "142311.081000", "142311.083000", "142311.086000", "142311.088000", "142311.091000", "142311.093000", "142311.096000", "142311.098000", "142311.100000", "142311.103000", "142311.105000", "142311.108000", "142311.110000", "142311.113000", "142311.115000", "142311.118000", "142311.120000", "142311.123000", "142311.125000", "142311.127000", "142311.130000", "142311.132000", "142311.135000", "142331.058000", "142331.061000", "142331.063000", "142331.065000", "142331.068000", "142331.071000", "142331.073000", "142331.075000", "142331.078000", "142331.080000", "142331.100000", "142331.102000", "142331.104000", "142331.107000", "142331.109000", "142331.112000", "142331.115000", "142331.118000", "142331.120000", "142331.123000", "142331.125000", "142331.128000", "142331.130000", "142331.132000", "142331.135000", "142331.137000", "142331.140000", "142331.142000", "142331.145000", "142331.153000", "142331.156000", "142331.158000", "142331.161000", "142351.058000", "142351.061000", "142351.064000", "142351.066000", "142351.069000", "142351.072000", "142351.074000", "142351.077000", "142351.079000", "142351.082000", "142351.084000", "142351.086000", "142351.089000", "142351.091000", "142351.094000", "142351.096000", "142351.099000", "142351.101000", "142351.103000", "142351.106000", "142351.108000", "142351.111000", "142351.113000", "142351.116000", "142351.118000", "142351.120000", "142351.123000", "142351.125000", "142351.128000", "142351.130000", "142351.133000", "142351.135000", "142351.137000", "142411.058000", "142411.061000", "142411.064000", "142411.066000", "142411.068000", "142411.071000", "142411.073000", "142411.076000", "142411.078000", "142411.088000", "142411.090000", "142411.092000", "142411.095000", "142411.097000", "142411.100000", "142411.102000", "142411.104000", "142411.107000", "142411.109000", "142411.112000", "142411.114000", "142411.117000", "142411.119000", "142411.122000", "142411.124000", "142411.126000", "142411.129000", "142411.131000", "142411.133000", "142411.136000", "142411.139000", "142411.141000", "142411.143000", "142431.058000", "142431.061000", "142431.063000", "142431.066000", "142431.068000", "142431.070000", "142431.073000", "142431.075000", "142431.078000", "142431.080000", "142431.083000", "142431.085000", "142431.088000", "142431.094000", "142431.096000", "142431.099000", "142431.101000", "142431.103000", "142431.106000", "142431.108000", "142431.111000", "142431.113000", "142431.116000", "142431.118000", "142431.120000", "142431.123000", "142431.125000", "142431.128000", "142431.130000", "142431.132000", "142431.135000", "142431.137000", "142431.140000", "142440.173000", "142440.176000", "142440.178000", "142440.181000", "142440.183000", "142440.186000", "142440.188000", "142440.190000", "142440.193000", "142440.195000", "142440.198000", "142440.200000", "142440.203000", "142440.205000", "142440.208000"], "InstanceCreationTime": ["141951.063000", "141951.066000", "141951.068000", "141951.070000", "141951.073000", "141951.075000", "141951.084000", "141951.086000", "141951.089000", "141951.091000", "141951.094000", "141951.096000", "141951.098000", "141951.101000", "141951.103000", "141951.106000", "141951.108000", "141951.111000", "141951.113000", "141951.115000", "141951.118000", "141951.120000", "141951.123000", "141951.125000", "141951.127000", "141951.130000", "141951.132000", "141951.135000", "141951.137000", "141951.139000", "141951.142000", "141951.144000", "141951.147000", "141951.149000", "141951.152000", "141951.154000", "142011.058000", "142011.061000", "142011.063000", "142011.066000", "142011.068000", "142011.070000", "142011.073000", "142011.075000", "142011.078000", "142011.081000", "142011.083000", "142011.086000", "142011.088000", "142011.091000", "142011.093000", "142011.096000", "142011.098000", "142011.101000", "142011.103000", "142011.105000", "142011.108000", "142011.110000", "142011.113000", "142011.115000", "142011.118000", "142011.120000", "142011.123000", "142011.125000", "142011.128000", "142011.130000", "142011.132000", "142011.135000", "142031.058000", "142031.061000", "142031.063000", "142031.065000", "142031.068000", "142031.070000", "142031.073000", "142031.075000", "142031.077000", "142031.080000", "142031.082000", "142031.085000", "142031.087000", "142031.090000", "142031.092000", "142031.094000", "142031.097000", "142031.099000", "142031.102000", "142031.104000", "142031.113000", "142031.115000", "142031.117000", "142031.120000", "142031.122000", "142031.124000", "142031.127000", "142031.129000", "142031.132000", "142031.134000", "142031.145000", "142031.148000", "142031.150000", "142051.058000", "142051.061000", "142051.063000", "142051.066000", "142051.068000", "142051.070000", "142051.073000", "142051.075000", "142051.078000", "142051.080000", "142051.083000", "142051.085000", "142051.087000", "142051.090000", "142051.092000", "142051.095000", "142051.097000", "142051.100000", "142051.102000", "142051.105000", "142051.107000", "142051.109000", "142051.112000", "142051.114000", "142051.117000", "142051.119000", "142051.121000", "142051.124000", "142051.126000", "142051.129000", "142051.131000", "142051.133000", "142051.136000", "142111.058000", "142111.061000", "142111.063000", "142111.066000", "142111.069000", "142111.071000", "142111.074000", "142111.076000", "142111.078000", "142111.081000", "142111.083000", "142111.086000", "142111.088000", "142111.091000", "142111.093000", "142111.096000", "142111.098000", "142111.100000", "142111.103000", "142111.105000", "142111.108000", "142111.110000", "142111.113000", "142111.115000", "142111.118000", "142111.120000", "142111.122000", "142111.125000", "142111.127000", "142111.130000", "142111.132000", "142111.135000", "142111.137000", "142131.058000", "142131.061000", "142131.063000", "142131.066000", "142131.068000", "142131.070000", "142131.077000", "142131.080000", "142131.082000", "142131.085000", "142131.087000", "142131.090000", "142131.092000", "142131.094000", "142131.097000", "142131.099000", "142131.102000", "142131.104000", "142131.107000", "142131.109000", "142131.111000", "142131.114000", "142131.116000", "142131.119000", "142131.121000", "142131.124000", "142131.126000", "142131.128000", "142131.131000", "142131.133000", "142131.136000", "142131.138000", "142151.058000", "142151.061000", "142151.063000", "142151.066000", "142151.068000", "142151.071000", "142151.073000", "142151.076000", "142151.079000", "142151.082000", "142151.084000", "142151.086000", "142151.089000", "142151.091000", "142151.094000", "142151.096000", "142151.098000", "142151.101000", "142151.103000", "142151.106000", "142151.109000", "142151.111000", "142151.113000", "142151.116000", "142151.118000", "142151.121000", "142151.123000", "142151.125000", "142151.128000", "142151.130000", "142151.133000", "142151.135000", "142151.138000", "142211.058000", "142211.061000", "142211.063000", "142211.066000", "142211.068000", "142211.071000", "142211.073000", "142211.075000", "142211.078000", "142211.080000", "142211.083000", "142211.085000", "142211.087000", "142211.090000", "142211.092000", "142211.095000", "142211.097000", "142211.100000", "142211.102000", "142211.104000", "142211.107000", "142211.109000", "142211.112000", "142211.114000", "142211.116000", "142211.119000", "142211.121000", "142211.124000", "142211.126000", "142211.128000", "142211.131000", "142211.133000", "142211.135000", "142231.058000", "142231.061000", "142231.064000", "142231.066000", "142231.068000", "142231.071000", "142231.073000", "142231.076000", "142231.078000", "142231.081000", "142231.083000", "142231.085000", "142231.088000", "142231.090000", "142231.093000", "142231.095000", "142231.097000", "142231.100000", "142231.102000", "142231.105000", "142231.107000", "142231.109000", "142231.112000", "142231.114000", "142231.117000", "142231.119000", "142231.121000", "142231.124000", "142231.126000", "142231.129000", "142231.132000", "142231.134000", "142231.136000", "142251.058000", "142251.061000", "142251.063000", "142251.066000", "142251.068000", "142251.070000", "142251.073000", "142251.075000", "142251.078000", "142251.080000", "142251.082000", "142251.085000", "142251.087000", "142251.090000", "142251.092000", "142251.095000", "142251.097000", "142251.100000", "142251.102000", "142251.104000", "142251.107000", "14