{"AcquisitionMatrixPE": 64, "AcquisitionNumber": 1, "AcquisitionTime": "11:09:56.685000", "BandwidthPerPixelPhaseEncode": 28.935, "BaseResolution": 64, "BodyPartExamined": "BRAIN", "CoilCombinationMethod": "Sum of Squares", "ConsistencyInfo": "N4_VE11E_LATEST_20181129", "ConversionSoftware": "dcm2niix", "ConversionSoftwareVersion": "v1.0.20230411", "DerivedVendorReportedEchoSpacing": 0.000540003, "DeviceSerialNumber": "166182", "DwellTime": 3.4e-06, "EchoTime": 0.032, "EchoTrainLength": 64, "EffectiveEchoSpacing": 0.000540003, "FlipAngle": 40, "HeudiconvVersion": "0.13.1", "ImageOrientationPatientDICOM": [0.999939, -0.00860977, 0.00690369, 0.00872635, 0.999817, -0.0170378], "ImageOrientationText": "Tra>Cor(-1.0)>Sag(0.4)", "ImageType": ["ORIGINAL", "PRIMARY", "M", "ND", "NORM", "MOSAIC"], "ImagingFrequency": 123.255935, "InPlanePhaseEncodingDirectionDICOM": "COL", "InstitutionAddress": "PEARSE STREET .,City,District,IE,D2", "InstitutionName": "TCIN", "InstitutionalDepartmentName": "MRI", "MRAcquisitionType": "2D", "MagneticFieldStrength": 3, "Manufacturer": "Siemens", "ManufacturersModelName": "Prisma", "Modality": "MR", "MultibandAccelerationFactor": 4, "NonlinearGradientCorrection": false, "PartialFourier": 1, "PatientPosition": "HFS", "PercentPhaseFOV": 100, "PercentSampling": 100, "PhaseEncodingDirection": "j-", "PhaseEncodingSteps": 64, "PhaseResolution": 1, "PixelBandwidth": 2300, "ProcedureStepDescription": "Rhodri^Head BOLD", "ProtocolName": "cmrr_mbep2d_Pictures_AP_RDS", "PulseSequenceDetails": "%SiemensSeq%\\ep2d_bold", "ReceiveCoilActiveElements": "HC2,4,6,7;SC", "ReceiveCoilName": "SpecialPurpose_4", "ReconMatrixPE": 64, "RefLinesPE": 12, "RepetitionTime": 0.61, "SAR": 0.336966, "ScanOptions": "FS", "ScanningSequence": "EP", "SequenceName": "*epfid2d1_64", "SequenceVariant": "SK", "SeriesDescription": "cmrr_mbep2d_Pictures_AP_RDS", "SeriesNumber": 9, "ShimSetting": [-3610, -7421, 3944, 910, -90, 171, -139, -41], "SliceThickness": 3, "SliceTiming": [0.2625, 0, 0.3275, 0.065, 0.395, 0.1325, 0.46, 0.1975, 0.525, 0.2625, 0, 0.3275, 0.065, 0.395, 0.1325, 0.46, 0.1975, 0.525, 0.2625, 0, 0.3275, 0.065, 0.395, 0.1325, 0.46, 0.1975, 0.525, 0.2625, 0, 0.3275, 0.065, 0.395, 0.1325, 0.46, 0.1975, 0.525], "SoftwareVersions": "syngo MR E11", "SpacingBetweenSlices": 3.3, "StationName": "AWP166182", "TaskName": "pictures", "TotalReadoutTime": 0.0340202, "TxRefAmp": 238.692, "dcmmeta_affine": [[-2.999817371368408, 0.026179056614637375, 0.02229393646121025, 93.04387664794922], [0.025829322636127472, 2.999450206756592, -0.056420233100652695, -107.3580551147461], [0.020711084827780724, 0.05111350119113922, 3.2994422912597656, -92.61210632324219], [0.0, 0.0, 0.0, 1.0]], "dcmmeta_reorient_transform": [[0.0, -1.0, 0.0, 63.0], [1.0, 0.0, 0.0, 0.0], [0.0, 0.0, 1.0, 0.0], [0.0, 0.0, 0.0, 1.0]], "dcmmeta_shape": [64, 64, 36, 510], "dcmmeta_slice_dim": 2, "dcmmeta_version": 0.6, "global": {"const": {"AcquisitionMatrix": [64, 0, 0, 64], "AngioFlag": "N", "BitsAllocated": 16, "BitsStored": 12, "BodyPartExamined": "BRAIN", "Columns": 384, "EchoNumbers": 1, "EchoTime": 32.0, "EchoTrainLength": 64, "FlipAngle": 40.0, "HighBit": 11, "ImageOrientationPatient": [0.99993910353493, -0.0086097744151, 0.0069036951177, 0.00872635221568, 0.99981676470792, -0.0170378339584], "ImagePositionPatient": [-578.85257413215, -557.38666912718, -84.527566044852], "ImageType": ["ORIGINAL", "PRIMARY", "M", "ND", "NORM", "MOSAIC"], "ImagedNucleus": "1H", "ImagingFrequency": 123.255935, "InPlanePhaseEncodingDirection": "COL", "MRAcquisitionType": "2D", "MagneticFieldStrength": 3.0, "Manufacturer": "SIEMENS", "ManufacturerModelName": "Prisma", "Modality": "MR", "NumberOfAverages": 1.0, "NumberOfPhaseEncodingSteps": 64, "PercentPhaseFieldOfView": 100.0, "PercentSampling": 100.0, "PerformedProcedureStepStartTime": "105719.359000", "PhotometricInterpretation": "MONOCHROME2", "PixelBandwidth": 2300.0, "PixelRepresentation": 0, "PixelSpacing": [3.0, 3.0], "ProtocolName": "cmrr_mbep2d_Pictures_AP_RDS", "RepetitionTime": 610.0, "Rows": 384, "SAR": 0.33696587726584, "SamplesPerPixel": 1, "ScanOptions": "FS", "ScanningSequence": "EP", "SequenceName": "*epfid2d1_64", "SequenceVariant": "SK", "SeriesDescription": "cmrr_mbep2d_Pictures_AP_RDS", "SeriesNumber": 9, "SeriesTime": "111010.870000", "SliceLocation": -90.132367840844, "SliceThickness": 3.0, "SmallestImagePixelValue": 0, "SoftwareVersions": "syngo MR E11", "SpacingBetweenSlices": 3.3000000080967, "SpecificCharacterSet": "ISO_IR 100", "StudyID": "2", "StudyTime": "105719.315000", "TransmitCoilName": "Body", "VariableFlipAngleFlag": "N", "WindowCenterWidthExplanation": "Algo1"}, "slices": {}}, "time": {"samples": {"AcquisitionNumber": [1, 2, 3, 4, 5, 6, 7, 8, 9, 10, 11, 12, 13, 14, 15, 16, 17, 18, 19, 20, 21, 22, 23, 24, 25, 26, 27, 28, 29, 30, 31, 32, 33, 34, 35, 36, 37, 38, 39, 40, 41, 42, 43, 44, 45, 46, 47, 48, 49, 50, 51, 52, 53, 54, 55, 56, 57, 58, 59, 60, 61, 62, 63, 64, 65, 66, 67, 68, 69, 70, 71, 72, 73, 74, 75, 76, 77, 78, 79, 80, 81, 82, 83, 84, 85, 86, 87, 88, 89, 90, 91, 92, 93, 94, 95, 96, 97, 98, 99, 100, 101, 102, 103, 104, 105, 106, 107, 108, 109, 110, 111, 112, 113, 114, 115, 116, 117, 118, 119, 120, 121, 122, 123, 124, 125, 126, 127, 128, 129, 130, 131, 132, 133, 134, 135, 136, 137, 138, 139, 140, 141, 142, 143, 144, 145, 146, 147, 148, 149, 150, 151, 152, 153, 154, 155, 156, 157, 158, 159, 160, 161, 162, 163, 164, 165, 166, 167, 168, 169, 170, 171, 172, 173, 174, 175, 176, 177, 178, 179, 180, 181, 182, 183, 184, 185, 186, 187, 188, 189, 190, 191, 192, 193, 194, 195, 196, 197, 198, 199, 200, 201, 202, 203, 204, 205, 206, 207, 208, 209, 210, 211, 212, 213, 214, 215, 216, 217, 218, 219, 220, 221, 222, 223, 224, 225, 226, 227, 228, 229, 230, 231, 232, 233, 234, 235, 236, 237, 238, 239, 240, 241, 242, 243, 244, 245, 246, 247, 248, 249, 250, 251, 252, 253, 254, 255, 256, 257, 258, 259, 260, 261, 262, 263, 264, 265, 266, 267, 268, 269, 270, 271, 272, 273, 274, 275, 276, 277, 278, 279, 280, 281, 282, 283, 284, 285, 286, 287, 288, 289, 290, 291, 292, 293, 294, 295, 296, 297, 298, 299, 300, 301, 302, 303, 304, 305, 306, 307, 308, 309, 310, 311, 312, 313, 314, 315, 316, 317, 318, 319, 320, 321, 322, 323, 324, 325, 326, 327, 328, 329, 330, 331, 332, 333, 334, 335, 336, 337, 338, 339, 340, 341, 342, 343, 344, 345, 346, 347, 348, 349, 350, 351, 352, 353, 354, 355, 356, 357, 358, 359, 360, 361, 362, 363, 364, 365, 366, 367, 368, 369, 370, 371, 372, 373, 374, 375, 376, 377, 378, 379, 380, 381, 382, 383, 384, 385, 386, 387, 388, 389, 390, 391, 392, 393, 394, 395, 396, 397, 398, 399, 400, 401, 402, 403, 404, 405, 406, 407, 408, 409, 410, 411, 412, 413, 414, 415, 416, 417, 418, 419, 420, 421, 422, 423, 424, 425, 426, 427, 428, 429, 430, 431, 432, 433, 434, 435, 436, 437, 438, 439, 440, 441, 442, 443, 444, 445, 446, 447, 448, 449, 450, 451, 452, 453, 454, 455, 456, 457, 458, 459, 460, 461, 462, 463, 464, 465, 466, 467, 468, 469, 470, 471, 472, 473, 474, 475, 476, 477, 478, 479, 480, 481, 482, 483, 484, 485, 486, 487, 488, 489, 490, 491, 492, 493, 494, 495, 496, 497, 498, 499, 500, 501, 502, 503, 504, 505, 506, 507, 508, 509, 510], "AcquisitionTime": ["110956.685000", "110957.295000", "110957.905000", "110958.515000", "110959.125000", "110959.735000", "111000.345000", "111000.955000", "111001.565000", "111002.175000", "111002.785000", "111003.395000", "111004.005000", "111004.615000", "111005.225000", "111005.835000", "111006.445000", "111007.055000", "111007.665000", "111008.275000", "111008.885000", "111009.495000", "111010.105000", "111010.715000", "111011.325000", "111011.935000", "111012.545000", "111013.155000", "111013.765000", "111014.375000", "111014.985000", "111015.595000", "111016.205000", "111016.815000", "111017.425000", "111018.035000", "111018.645000", "111019.255000", "111019.865000", "111020.475000", "111021.085000", "111021.695000", "111022.305000", "111022.915000", "111023.525000", "111024.135000", "111024.745000", "111025.355000", "111025.965000", "111026.575000", "111027.185000", "111027.795000", "111028.405000", "111029.015000", "111029.625000", "111030.235000", "111030.845000", "111031.455000", "111032.065000", "111032.675000", "111033.285000", "111033.895000", "111034.505000", "111035.115000", "111035.725000", "111036.335000", "111036.945000", "111037.555000", "111038.165000", "111038.775000", "111039.385000", "111039.995000", "111040.605000", "111041.215000", "111041.825000", "111042.435000", "111043.045000", "111043.655000", "111044.265000", "111044.875000", "111045.485000", "111046.095000", "111046.705000", "111047.315000", "111047.925000", "111048.535000", "111049.145000", "111049.755000", "111050.365000", "111050.975000", "111051.585000", "111052.195000", "111052.805000", "111053.415000", "111054.025000", "111054.635000", "111055.245000", "111055.855000", "111056.465000", "111057.075000", "111057.685000", "111058.295000", "111058.905000", "111059.515000", "111100.125000", "111100.735000", "111101.345000", "111101.955000", "111102.565000", "111103.175000", "111103.785000", "111104.395000", "111105.005000", "111105.615000", "111106.225000", "111106.835000", "111107.445000", "111108.055000", "111108.665000", "111109.275000", "111109.885000", "111110.495000", "111111.105000", "111111.715000", "111112.325000", "111112.935000", "111113.545000", "111114.155000", "111114.765000", "111115.375000", "111115.985000", "111116.595000", "111117.205000", "111117.815000", "111118.425000", "111119.035000", "111119.645000", "111120.255000", "111120.865000", "111121.475000", "111122.085000", "111122.695000", "111123.305000", "111123.915000", "111124.525000", "111125.135000", "111125.745000", "111126.355000", "111126.965000", "111127.575000", "111128.185000", "111128.795000", "111129.405000", "111130.015000", "111130.625000", "111131.235000", "111131.845000", "111132.455000", "111133.065000", "111133.675000", "111134.285000", "111134.895000", "111135.505000", "111136.115000", "111136.725000", "111137.335000", "111137.945000", "111138.555000", "111139.165000", "111139.775000", "111140.385000", "111140.995000", "111141.605000", "111142.215000", "111142.825000", "111143.435000", "111144.045000", "111144.655000", "111145.265000", "111145.875000", "111146.485000", "111147.095000", "111147.705000", "111148.315000", "111148.925000", "111149.535000", "111150.145000", "111150.755000", "111151.365000", "111151.975000", "111152.585000", "111153.195000", "111153.805000", "111154.415000", "111155.025000", "111155.635000", "111156.245000", "111156.855000", "111157.465000", "111158.075000", "111158.685000", "111159.295000", "111159.905000", "111200.515000", "111201.125000", "111201.735000", "111202.345000", "111202.955000", "111203.565000", "111204.175000", "111204.785000", "111205.395000", "111206.005000", "111206.615000", "111207.225000", "111207.835000", "111208.445000", "111209.055000", "111209.665000", "111210.275000", "111210.885000", "111211.495000", "111212.105000", "111212.715000", "111213.325000", "111213.935000", "111214.545000", "111215.155000", "111215.765000", "111216.375000", "111216.985000", "111217.595000", "111218.205000", "111218.815000", "111219.425000", "111220.035000", "111220.645000", "111221.255000", "111221.865000", "111222.475000", "111223.085000", "111223.695000", "111224.305000", "111224.915000", "111225.525000", "111226.135000", "111226.745000", "111227.355000", "111227.965000", "111228.575000", "111229.185000", "111229.795000", "111230.405000", "111231.015000", "111231.625000", "111232.235000", "111232.845000", "111233.455000", "111234.065000", "111234.675000", "111235.285000", "111235.895000", "111236.505000", "111237.115000", "111237.725000", "111238.335000", "111238.945000", "111239.555000", "111240.165000", "111240.775000", "111241.385000", "111241.995000", "111242.605000", "111243.215000", "111243.825000", "111244.435000", "111245.045000", "111245.655000", "111246.265000", "111246.875000", "111247.485000", "111248.095000", "111248.705000", "111249.315000", "111249.925000", "111250.535000", "111251.145000", "111251.755000", "111252.365000", "111252.975000", "111253.585000", "111254.195000", "111254.805000", "111255.415000", "111256.025000", "111256.635000", "111257.245000", "111257.855000", "111258.465000", "111259.075000", "111259.685000", "111300.295000", "111300.905000", "111301.515000", "111302.125000", "111302.735000", "111303.345000", "111303.955000", "111304.565000", "111305.175000", "111305.785000", "111306.395000", "111307.005000", "111307.615000", "111308.225000", "111308.835000", "111309.445000", "111310.055000", "111310.665000", "111311.275000", "111311.885000", "111312.495000", "111313.105000", "111313.715000", "111314.325000", "111314.935000", "111315.545000", "111316.155000", "111316.765000", "111317.375000", "111317.985000", "111318.595000", "111319.205000", "111319.815000", "111320.425000", "111321.035000", "111321.645000", "111322.255000", "111322.865000", "111323.475000", "111324.085000", "111324.695000", "111325.305000", "111325.915000", "111326.525000", "111327.135000", "111327.745000", "111328.355000", "111328.965000", "111329.575000", "111330.185000", "111330.795000", "111331.405000", "111332.015000", "111332.625000", "111333.235000", "111333.845000", "111334.455000", "111335.065000", "111335.675000", "111336.285000", "111336.895000", "111337.505000", "111338.115000", "111338.725000", "111339.335000", "111339.945000", "111340.555000", "111341.165000", "111341.775000", "111342.385000", "111342.995000", "111343.605000", "111344.215000", "111344.825000", "111345.435000", "111346.045000", "111346.655000", "111347.265000", "111347.875000", "111348.485000", "111349.095000", "111349.705000", "111350.315000", "111350.925000", "111351.535000", "111352.145000", "111352.755000", "111353.365000", "111353.975000", "111354.585000", "111355.195000", "111355.805000", "111356.415000", "111357.025000", "111357.635000", "111358.245000", "111358.855000", "111359.465000", "111400.075000", "111400.685000", "111401.295000", "111401.905000", "111402.515000", "111403.125000", "111403.735000", "111404.345000", "111404.955000", "111405.565000", "111406.175000", "111406.785000", "111407.395000", "111408.005000", "111408.615000", "111409.225000", "111409.835000", "111410.445000", "111411.055000", "111411.665000", "111412.275000", "111412.885000", "111413.495000", "111414.105000", "111414.715000", "111415.325000", "111415.935000", "111416.545000", "111417.155000", "111417.765000", "111418.375000", "111418.985000", "111419.595000", "111420.205000", "111420.815000", "111421.425000", "111422.035000", "111422.645000", "111423.255000", "111423.865000", "111424.475000", "111425.085000", "111425.695000", "111426.305000", "111426.915000", "111427.525000", "111428.135000", "111428.745000", "111429.355000", "111429.965000", "111430.575000", "111431.185000", "111431.795000", "111432.405000", "111433.015000", "111433.625000", "111434.235000", "111434.845000", "111435.455000", "111436.065000", "111436.675000", "111437.285000", "111437.895000", "111438.505000", "111439.115000", "111439.725000", "111440.335000", "111440.945000", "111441.555000", "111442.165000", "111442.775000", "111443.385000", "111443.995000", "111444.605000", "111445.215000", "111445.825000", "111446.435000", "111447.045000", "111447.655000", "111448.265000", "111448.875000", "111449.485000", "111450.095000", "111450.705000", "111451.315000", "111451.925000", "111452.535000", "111453.145000", "111453.755000", "111454.365000", "111454.975000", "111455.585000", "111456.195000", "111456.805000", "111457.415000", "111458.025000", "111458.635000", "111459.245000", "111459.855000", "111500.465000", "111501.075000", "111501.685000", "111502.295000", "111502.905000", "111503.515000", "111504.125000", "111504.735000", "111505.345000", "111505.955000", "111506.565000", "111507.175000"], "ContentTime": ["111010.874000", "111010.877000", "111010.879000", "111010.882000", "111010.884000", "111010.895000", "111010.898000", "111010.900000", "111010.903000", "111010.905000", "111010.907000", "111010.913000", "111010.915000", "111010.918000", "111010.920000", "111010.923000", "111010.925000", "111010.927000", "111010.930000", "111010.932000", "111010.935000", "111010.937000", "111030.870000", "111030.872000", "111030.882000", "111030.884000", "111030.887000", "111030.889000", "111030.891000", "111030.894000", "111030.896000", "111030.899000", "111030.901000", "111030.904000", "111030.914000", "111030.916000", "111030.919000", "111030.921000", "111030.924000", "111030.926000", "111030.929000", "111030.931000", "111030.934000", "111030.936000", "111030.938000", "111030.941000", "111030.943000", "111030.946000", "111030.948000", "111030.950000", "111030.964000", "111030.966000", "111030.969000", "111030.971000", "111030.973000", "111050.869000", "111050.872000", "111050.877000", "111050.879000", "111050.882000", "111050.884000", "111050.887000", "111050.889000", "111050.892000", "111050.894000", "111050.896000", "111050.899000", "111050.901000", "111050.904000", "111050.906000", "111050.908000", "111050.911000", "111050.913000", "111050.916000", "111050.918000", "111050.920000", "111050.923000", "111050.925000", "111050.927000", "111050.930000", "111050.932000", "111050.935000", "111050.937000", "111050.939000", "111050.942000", "111050.944000", "111050.947000", "111050.949000", "111110.869000", "111110.872000", "111110.874000", "111110.877000", "111110.879000", "111110.882000", "111110.884000", "111110.887000", "111110.889000", "111110.892000", "111110.894000", "111110.896000", "111110.899000", "111110.901000", "111110.904000", "111110.906000", "111110.909000", "111110.911000", "111110.913000", "111110.916000", "111110.918000", "111110.921000", "111110.923000", "111110.926000", "111110.928000", "111110.930000", "111110.933000", "111110.935000", "111110.938000", "111110.940000", "111110.942000", "111110.945000", "111110.947000", "111130.869000", "111130.872000", "111130.874000", "111130.877000", "111130.879000", "111130.881000", "111130.884000", "111130.886000", "111130.889000", "111130.891000", "111130.893000", "111130.896000", "111130.898000", "111130.901000", "111130.903000", "111130.905000", "111130.908000", "111130.910000", "111130.913000", "111130.915000", "111130.917000", "111130.920000", "111130.922000", "111130.925000", "111130.927000", "111130.933000", "111130.936000", "111130.938000", "111130.940000", "111130.943000", "111130.945000", "111130.948000", "111130.950000", "111150.869000", "111150.872000", "111150.874000", "111150.877000", "111150.879000", "111150.881000", "111150.884000", "111150.886000", "111150.889000", "111150.891000", "111150.894000", "111150.896000", "111150.898000", "111150.901000", "111150.903000", "111150.906000", "111150.908000", "111150.911000", "111150.913000", "111150.915000", "111150.918000", "111150.920000", "111150.922000", "111150.925000", "111150.927000", "111150.930000", "111150.932000", "111150.934000", "111150.937000", "111150.939000", "111150.942000", "111150.944000", "111210.869000", "111210.872000", "111210.874000", "111210.877000", "111210.879000", "111210.882000", "111210.884000", "111210.886000", "111210.889000", "111210.891000", "111210.894000", "111210.896000", "111210.899000", "111210.901000", "111210.904000", "111210.907000", "111210.910000", "111210.912000", "111210.914000", "111210.917000", "111210.919000", "111210.922000", "111210.924000", "111210.927000", "111210.929000", "111210.931000", "111210.934000", "111210.936000", "111210.939000", "111210.941000", "111210.944000", "111210.946000", "111210.949000", "111230.869000", "111230.872000", "111230.875000", "111230.877000", "111230.879000", "111230.882000", "111230.884000", "111230.887000", "111230.889000", "111230.892000", "111230.894000", "111230.896000", "111230.899000", "111230.901000", "111230.904000", "111230.906000", "111230.908000", "111230.911000", "111230.913000", "111230.916000", "111230.918000", "111230.920000", "111230.923000", "111230.925000", "111230.928000", "111230.930000", "111230.933000", "111230.935000", "111230.937000", "111230.940000", "111230.942000", "111230.945000", "111230.947000", "111250.869000", "111250.872000", "111250.874000", "111250.877000", "111250.879000", "111250.881000", "111250.884000", "111250.886000", "111250.889000", "111250.891000", "111250.894000", "111250.896000", "111250.909000", "111250.911000", "111250.913000", "111250.916000", "111250.918000", "111250.921000", "111250.923000", "111250.925000", "111250.928000", "111250.930000", "111250.933000", "111250.935000", "111250.938000", "111250.940000", "111250.942000", "111250.945000", "111250.947000", "111250.950000", "111250.952000", "111250.955000", "111250.957000", "111310.869000", "111310.872000", "111310.874000", "111310.877000", "111310.879000", "111310.882000", "111310.884000", "111310.887000", "111310.889000", "111310.891000", "111310.894000", "111310.896000", "111310.899000", "111310.901000", "111310.904000", "111310.906000", "111310.908000", "111310.911000", "111310.913000", "111310.916000", "111310.919000", "111310.921000", "111310.923000", "111310.926000", "111310.928000", "111310.931000", "111310.933000", "111310.936000", "111310.938000", "111310.940000", "111310.943000", "111310.945000", "111310.948000", "111330.869000", "111330.872000", "111330.875000", "111330.877000", "111330.879000", "111330.882000", "111330.884000", "111330.887000", "111330.889000", "111330.891000", "111330.894000", "111330.896000", "111330.899000", "111330.901000", "111330.904000", "111330.906000", "111330.909000", "111330.911000", "111330.913000", "111330.916000", "111330.918000", "111330.921000", "111330.923000", "111330.926000", "111330.928000", "111330.930000", "111330.933000", "111330.935000", "111330.938000", "111330.940000", "111330.943000", "111330.945000", "111350.869000", "111350.872000", "111350.874000", "111350.877000", "111350.879000", "111350.882000", "111350.884000", "111350.886000", "111350.889000", "111350.891000", "111350.894000", "111350.896000", "111350.899000", "111350.901000", "111350.903000", "111350.906000", "111350.908000", "111350.911000", "111350.913000", "111350.916000", "111350.918000", "111350.920000", "111350.923000", "111350.925000", "111350.928000", "111350.930000", "111350.933000", "111350.935000", "111350.938000", "111350.940000", "111350.943000", "111350.946000", "111350.949000", "111410.869000", "111410.872000", "111410.874000", "111410.877000", "111410.879000", "111410.882000", "111410.884000", "111410.887000", "111410.889000", "111410.892000", "111410.894000", "111410.896000", "111410.899000", "111410.901000", "111410.904000", "111410.906000", "111410.909000", "111410.911000", "111410.914000", "111410.916000", "111410.918000", "111410.921000", "111410.923000", "111410.926000", "111410.928000", "111410.931000", "111410.933000", "111410.935000", "111410.938000", "111410.940000", "111410.943000", "111410.945000", "111410.948000", "111430.869000", "111430.872000", "111430.875000", "111430.877000", "111430.879000", "111430.882000", "111430.884000", "111430.887000", "111430.889000", "111430.892000", "111430.894000", "111430.897000", "111430.899000", "111430.901000", "111430.904000", "111430.906000", "111430.909000", "111430.911000", "111430.914000", "111430.916000", "111430.919000", "111430.921000", "111430.924000", "111430.926000", "111430.928000", "111430.931000", "111430.933000", "111430.936000", "111430.938000", "111430.940000", "111430.943000", "111430.945000", "111430.948000", "111450.869000", "111450.872000", "111450.875000", "111450.877000", "111450.879000", "111450.882000", "111450.884000", "111450.887000", "111450.889000", "111450.892000", "111450.894000", "111450.897000", "111450.899000", "111450.902000", "111450.904000", "111450.906000", "111450.909000", "111450.911000", "111450.914000", "111450.916000", "111450.919000", "111450.921000", "111450.923000", "111450.926000", "111450.929000", "111450.931000", "111450.934000", "111450.936000", "111450.939000", "111450.941000", "111450.943000", "111450.946000", "111507.932000", "111507.935000", "111507.937000", "111507.940000", "111507.942000", "111507.945000", "111507.947000", "111507.949000", "111507.952000", "111507.954000", "111507.957000", "111507.959000", "111507.962000", "111507.964000", "111507.967000", "111507.969000", "111507.971000", "111507.974000", "111507.976000", "111507.979000", "111507.981000", "111507.983000", "111507.986000", "111507.988000", "111507.991000", "111507.993000", "111507.996000", "111507.998000", "111508.002000"], "InstanceCreationTime": ["111010.874000", "111010.877000", "111010.879000", "111010.882000", "111010.884000", "111010.895000", "111010.898000", "111010.900000", "111010.903000", "111010.905000", "111010.907000", "111010.913000", "111010.915000", "111010.918000", "111010.920000", "111010.923000", "111010.925000", "111010.927000", "111010.930000", "111010.932000", "111010.935000", "111010.937000", "111030.870000", "111030.872000", "111030.882000", "111030.884000", "111030.887000", "111030.889000", "111030.891000", "111030.894000", "111030.896000", "111030.899000", "111030.901000", "111030.904000", "111030.914000", "111030.916000", "111030.919000", "111030.921000", "111030.924000", "111030.926000", "111030.929000", "111030.931000", "111030.934000", "111030.936000", "111030.938000", "111030.941000", "111030.943000", "111030.946000", "111030.948000", "111030.950000", "111030.964000", "111030.966000", "111030.969000", "111030.971000", "111030.973000", "111050.869000", "111050.872000", "111050.877000", "111050.879000", "111050.882000", "111050.884000", "111050.887000", "111050.889000", "111050.892000", "111050.894000", "111050.896000", "111050.899000", "111050.901000", "111050.904000", "111050.906000", "111050.908000", "111050.911000", "111050.913000", "111050.916000", "111050.918000", "111050.920000", "111050.923000", "111050.925000", "111050.927000", "111050.930000", "111050.932000", "111050.935000", "111050.937000", "111050.939000", "111050.942000", "111050.944000", "111050.947000", "111050.949000", "111110.869000", "111110.872000", "111110.874000", "111110.877000", "111110.879000", "111110.882000", "111110.884000", "111110.887000", "111110.889000", "111110.892000", "111110.894000", "111110.896000", "111110.899000", "111110.901000", "111110.904000", "111110.906000", "111110.909000", "111110.911000", "111110.913000", "111110.916000", "111110.918000", "111110.921000", "111110.923000", "111110.926000", "111110.928000", "111110.930000", "111110.933000", "111110.935000", "111110.938000", "111110.940000", "111110.942000", "111110.945000", "111110.947000", "111130.869000", "111130.872000", "111130.874000", "111130.877000", "111130.879000", "111130.881000", "111130.884000", "111130.886000", "111130.889000", "111130.891000", "111130.893000", "111130.896000", "111130.898000", "111130.901000", "111130.903000", "111130.905000", "111130.908000", "111130.910000", "111130.913000", "111130.915000", "111130.917000", "111130.920000", "111130.922000", "111130.925000", "111130.927000", "111130.933000", "111130.936000", "111130.938000", "111130.940000", "111130.943000", "111130.945000", "111130.948000", "111130.950000", "111150.869000", "111150.872000", "111150.874000", "111150.877000", "111150.879000", "111150.881000", "111150.884000", "111150.886000", "111150.889000", "111150.891000", "111150.894000", "111150.896000", "111150.898000", "111150.901000", "111150.903000", "111150.906000", "111150.908000", "111150.911000", "111150.913000", "111150.915000", "111150.918000", "111150.920000", "111150.922000", "111150.925000", "111150.927000", "111150.930000", "111150.932000", "111150.934000", "111150.937000", "111150.939000", "111150.942000", "111150.944000", "111210.869000", "111210.872000", "111210.874000", "111210.877000", "111210.879000", "111210.882000", "111210.884000", "111210.886000", "111210.889000", "111210.891000", "111210.894000", "111210.896000", "111210.899000", "111210.901000", "111210.904000", "111210.907000", "111210.910000", "111210.912000", "111210.914000", "111210.917000", "111210.919000", "111210.922000", "111210.924000", "111210.927000", "111210.929000", "111210.931000", "111210.934000", "111210.936000", "111210.939000", "111210.941000", "111210.944000", "111210.946000", "111210.949000", "111230.869000", "111230.872000", "111230.875000", "111230.877000", "111230.879000", "111230.882000", "111230.884000", "111230.887000", "111230.889000", "111230.892000", "111230.894000", "111230.896000", "111230.899000", "111230.901000", "111230.904000", "111230.906000", "111230.908000", "111230.911000", "111230.913000", "111230.916000", "111230.918000", "111230.920000", "111230.923000", "111230.925000", "111230.928000", "111230.930000", "111230.933000", "111230.935000", "111230.937000", "111230.940000", "111230.942000", "111230.945000", "111230.947000", "111250.869000", "111250.872000", "111250.874000", "111250.877000", "111250.879000", "111250.881000", "111250.884000", "111250.886000", "111250.889000", "111250.891000", "111250.894000", "111250.896000", "111250.909000", "111250.911000", "111250.913000", "111250.916000", "111250.918000", "111250.921000", "111250.923000", "111250.925000", "111250.928000", "111250.930000", "111250.933000", "111250.935000", "111250.938000", "111250.940000", "111250.942000", "111250.945000", "111250.947000", "111250.950000", "111250.952000", "111250.955000", "111250.957000", "111310.869000", "111310.872000", "111310.874000", "111310.877000", "111310.879000", "111310.882000", "111310.884000", "111310.887000", "111310.889000", "111310.891000", "111310.894000", "111310.896000", "111310.899000", "111310.901000", "111310.904000", "111310.906000", "111310.908000", "111310.911000", "111310.913000", "111310.916000", "111310.919000", "111310.921000", "111310.923000", "111310.926000", "111310.928000", "111310.931000", "111310.933000", "111310.936000", "111310.938000", "111310.940000", "111310.943000", "111310.945000", "111310.948000", "111330.869000", "111330