{"AcquisitionMatrixPE": 64, "AcquisitionNumber": 1, "AcquisitionTime": "14:54:58.717500", "BandwidthPerPixelPhaseEncode": 28.935, "BaseResolution": 64, "BodyPartExamined": "BRAIN", "CoilCombinationMethod": "Sum of Squares", "ConsistencyInfo": "N4_VE11E_LATEST_20181129", "ConversionSoftware": "dcm2niix", "ConversionSoftwareVersion": "v1.0.20230411", "DerivedVendorReportedEchoSpacing": 0.000540003, "DeviceSerialNumber": "166182", "DwellTime": 3.4e-06, "EchoTime": 0.032, "EchoTrainLength": 64, "EffectiveEchoSpacing": 0.000540003, "FlipAngle": 40, "HeudiconvVersion": "0.13.1", "ImageOrientationPatientDICOM": [0.993816, -0.086931, -0.0690917, 0.0871223, 0.996198, -0.000245672], "ImageOrientationText": "Tra>Sag(-3.9)>Cor(0.3)", "ImageType": ["ORIGINAL", "PRIMARY", "M", "ND", "NORM", "MOSAIC"], "ImagingFrequency": 123.255824, "InPlanePhaseEncodingDirectionDICOM": "COL", "InstitutionAddress": "PEARSE STREET .,City,District,IE,D2", "InstitutionName": "TCIN", "InstitutionalDepartmentName": "MRI", "MRAcquisitionType": "2D", "MagneticFieldStrength": 3, "Manufacturer": "Siemens", "ManufacturersModelName": "Prisma", "Modality": "MR", "MultibandAccelerationFactor": 4, "NonlinearGradientCorrection": false, "PartialFourier": 1, "PatientPosition": "HFS", "PercentPhaseFOV": 100, "PercentSampling": 100, "PhaseEncodingDirection": "j-", "PhaseEncodingSteps": 64, "PhaseResolution": 1, "PixelBandwidth": 2300, "ProcedureStepDescription": "Rhodri^Head BOLD", "ProtocolName": "cmrr_mbep2d_Pictures_AP_RDS", "PulseSequenceDetails": "%SiemensSeq%\\ep2d_bold", "ReceiveCoilActiveElements": "HC2,4,6,7;SC", "ReceiveCoilName": "SpecialPurpose_4", "ReconMatrixPE": 64, "RefLinesPE": 12, "RepetitionTime": 0.61, "SAR": 0.288432, "ScanOptions": "FS", "ScanningSequence": "EP", "SequenceName": "*epfid2d1_64", "SequenceVariant": "SK", "SeriesDescription": "cmrr_mbep2d_Pictures_AP_RDS", "SeriesNumber": 8, "ShimSetting": [-3661, -7413, 3941, 890, -277, -155, -149, 33], "SliceThickness": 3, "SliceTiming": [0.26, 0, 0.3275, 0.065, 0.3925, 0.13, 0.4575, 0.195, 0.5225, 0.26, 0, 0.3275, 0.065, 0.3925, 0.13, 0.4575, 0.195, 0.5225, 0.26, 0, 0.3275, 0.065, 0.3925, 0.13, 0.4575, 0.195, 0.5225, 0.26, 0, 0.3275, 0.065, 0.3925, 0.13, 0.4575, 0.195, 0.5225], "SoftwareVersions": "syngo MR E11", "SpacingBetweenSlices": 3.3, "StationName": "AWP166182", "TaskName": "pictures", "TotalReadoutTime": 0.0340202, "TxRefAmp": 227.342, "dcmmeta_affine": [[-2.9814465045928955, 0.26136693358421326, -0.22720620036125183, 90.35518646240234], [0.2607930898666382, 2.9885928630828857, 0.019058415666222572, -118.67349243164062], [-0.2072751671075821, 0.0007370167295448482, 3.292113780975342, -80.26751708984375], [0.0, 0.0, 0.0, 1.0]], "dcmmeta_reorient_transform": [[0.0, -1.0, 0.0, 63.0], [1.0, 0.0, 0.0, 0.0], [0.0, 0.0, 1.0, 0.0], [0.0, 0.0, 0.0, 1.0]], "dcmmeta_shape": [64, 64, 36, 510], "dcmmeta_slice_dim": 2, "dcmmeta_version": 0.6, "global": {"const": {"AcquisitionMatrix": [64, 0, 0, 64], "AngioFlag": "N", "BitsAllocated": 16, "BitsStored": 12, "BodyPartExamined": "BRAIN", "Columns": 384, "EchoNumbers": 1, "EchoTime": 32.0, "EchoTrainLength": 64, "FlipAngle": 40.0, "HighBit": 11, "ImageOrientationPatient": [0.9938155410835, -0.0869310308543, -0.0690917229161, 0.08712231404849, 0.99619759186618, -0.0002456722489], "ImagePositionPatient": [-625.67147480253, -506.05580505776, -46.939132308779], "ImageType": ["ORIGINAL", "PRIMARY", "M", "ND", "NORM", "MOSAIC"], "ImagedNucleus": "1H", "ImagingFrequency": 123.255824, "InPlanePhaseEncodingDirection": "COL", "MRAcquisitionType": "2D", "MagneticFieldStrength": 3.0, "Manufacturer": "SIEMENS", "ManufacturerModelName": "Prisma", "Modality": "MR", "NumberOfAverages": 1.0, "NumberOfPhaseEncodingSteps": 64, "PercentPhaseFieldOfView": 100.0, "PercentSampling": 100.0, "PerformedProcedureStepStartTime": "144004.782000", "PhotometricInterpretation": "MONOCHROME2", "PixelBandwidth": 2300.0, "PixelRepresentation": 0, "PixelSpacing": [3.0, 3.0], "ProtocolName": "cmrr_mbep2d_Pictures_AP_RDS", "RepetitionTime": 610.0, "Rows": 384, "SAR": 0.2884318819031, "SamplesPerPixel": 1, "ScanOptions": "FS", "ScanningSequence": "EP", "SequenceName": "*epfid2d1_64", "SequenceVariant": "SK", "SeriesDescription": "cmrr_mbep2d_Pictures_AP_RDS", "SeriesNumber": 8, "SeriesTime": "145523.570000", "SliceLocation": -86.982057206078, "SliceThickness": 3.0, "SmallestImagePixelValue": 0, "SoftwareVersions": "syngo MR E11", "SpacingBetweenSlices": 3.299999893002, "SpecificCharacterSet": "ISO_IR 100", "StudyID": "1", "StudyTime": "144004.675000", "TransmitCoilName": "Body", "VariableFlipAngleFlag": "N", "WindowCenterWidthExplanation": "Algo1"}, "slices": {}}, "time": {"samples": {"AcquisitionNumber": [1, 2, 3, 4, 5, 6, 7, 8, 9, 10, 11, 12, 13, 14, 15, 16, 17, 18, 19, 20, 21, 22, 23, 24, 25, 26, 27, 28, 29, 30, 31, 32, 33, 34, 35, 36, 37, 38, 39, 40, 41, 42, 43, 44, 45, 46, 47, 48, 49, 50, 51, 52, 53, 54, 55, 56, 57, 58, 59, 60, 61, 62, 63, 64, 65, 66, 67, 68, 69, 70, 71, 72, 73, 74, 75, 76, 77, 78, 79, 80, 81, 82, 83, 84, 85, 86, 87, 88, 89, 90, 91, 92, 93, 94, 95, 96, 97, 98, 99, 100, 101, 102, 103, 104, 105, 106, 107, 108, 109, 110, 111, 112, 113, 114, 115, 116, 117, 118, 119, 120, 121, 122, 123, 124, 125, 126, 127, 128, 129, 130, 131, 132, 133, 134, 135, 136, 137, 138, 139, 140, 141, 142, 143, 144, 145, 146, 147, 148, 149, 150, 151, 152, 153, 154, 155, 156, 157, 158, 159, 160, 161, 162, 163, 164, 165, 166, 167, 168, 169, 170, 171, 172, 173, 174, 175, 176, 177, 178, 179, 180, 181, 182, 183, 184, 185, 186, 187, 188, 189, 190, 191, 192, 193, 194, 195, 196, 197, 198, 199, 200, 201, 202, 203, 204, 205, 206, 207, 208, 209, 210, 211, 212, 213, 214, 215, 216, 217, 218, 219, 220, 221, 222, 223, 224, 225, 226, 227, 228, 229, 230, 231, 232, 233, 234, 235, 236, 237, 238, 239, 240, 241, 242, 243, 244, 245, 246, 247, 248, 249, 250, 251, 252, 253, 254, 255, 256, 257, 258, 259, 260, 261, 262, 263, 264, 265, 266, 267, 268, 269, 270, 271, 272, 273, 274, 275, 276, 277, 278, 279, 280, 281, 282, 283, 284, 285, 286, 287, 288, 289, 290, 291, 292, 293, 294, 295, 296, 297, 298, 299, 300, 301, 302, 303, 304, 305, 306, 307, 308, 309, 310, 311, 312, 313, 314, 315, 316, 317, 318, 319, 320, 321, 322, 323, 324, 325, 326, 327, 328, 329, 330, 331, 332, 333, 334, 335, 336, 337, 338, 339, 340, 341, 342, 343, 344, 345, 346, 347, 348, 349, 350, 351, 352, 353, 354, 355, 356, 357, 358, 359, 360, 361, 362, 363, 364, 365, 366, 367, 368, 369, 370, 371, 372, 373, 374, 375, 376, 377, 378, 379, 380, 381, 382, 383, 384, 385, 386, 387, 388, 389, 390, 391, 392, 393, 394, 395, 396, 397, 398, 399, 400, 401, 402, 403, 404, 405, 406, 407, 408, 409, 410, 411, 412, 413, 414, 415, 416, 417, 418, 419, 420, 421, 422, 423, 424, 425, 426, 427, 428, 429, 430, 431, 432, 433, 434, 435, 436, 437, 438, 439, 440, 441, 442, 443, 444, 445, 446, 447, 448, 449, 450, 451, 452, 453, 454, 455, 456, 457, 458, 459, 460, 461, 462, 463, 464, 465, 466, 467, 468, 469, 470, 471, 472, 473, 474, 475, 476, 477, 478, 479, 480, 481, 482, 483, 484, 485, 486, 487, 488, 489, 490, 491, 492, 493, 494, 495, 496, 497, 498, 499, 500, 501, 502, 503, 504, 505, 506, 507, 508, 509, 510], "AcquisitionTime": ["145458.717500", "145459.327500", "145459.937500", "145500.547500", "145501.157500", "145501.767500", "145502.377500", "145502.987500", "145503.597500", "145504.207500", "145504.817500", "145505.427500", "145506.037500", "145506.647500", "145507.257500", "145507.867500", "145508.477500", "145509.087500", "145509.697500", "145510.307500", "145510.917500", "145511.527500", "145512.137500", "145512.747500", "145513.357500", "145513.967500", "145514.577500", "145515.187500", "145515.797500", "145516.407500", "145517.017500", "145517.627500", "145518.237500", "145518.847500", "145519.457500", "145520.067500", "145520.677500", "145521.287500", "145521.897500", "145522.507500", "145523.117500", "145523.727500", "145524.337500", "145524.947500", "145525.557500", "145526.167500", "145526.777500", "145527.387500", "145527.997500", "145528.607500", "145529.217500", "145529.827500", "145530.437500", "145531.047500", "145531.657500", "145532.267500", "145532.877500", "145533.487500", "145534.097500", "145534.707500", "145535.317500", "145535.927500", "145536.537500", "145537.147500", "145537.757500", "145538.367500", "145538.977500", "145539.587500", "145540.197500", "145540.807500", "145541.417500", "145542.027500", "145542.637500", "145543.247500", "145543.857500", "145544.467500", "145545.077500", "145545.687500", "145546.297500", "145546.907500", "145547.517500", "145548.127500", "145548.737500", "145549.347500", "145549.957500", "145550.567500", "145551.177500", "145551.787500", "145552.397500", "145553.007500", "145553.617500", "145554.227500", "145554.837500", "145555.447500", "145556.057500", "145556.667500", "145557.277500", "145557.887500", "145558.497500", "145559.107500", "145559.717500", "145600.327500", "145600.937500", "145601.547500", "145602.157500", "145602.767500", "145603.377500", "145603.987500", "145604.597500", "145605.207500", "145605.817500", "145606.427500", "145607.037500", "145607.647500", "145608.257500", "145608.867500", "145609.477500", "145610.087500", "145610.697500", "145611.307500", "145611.917500", "145612.527500", "145613.137500", "145613.747500", "145614.357500", "145614.967500", "145615.577500", "145616.187500", "145616.797500", "145617.407500", "145618.017500", "145618.627500", "145619.237500", "145619.847500", "145620.457500", "145621.067500", "145621.677500", "145622.287500", "145622.897500", "145623.507500", "145624.117500", "145624.727500", "145625.337500", "145625.947500", "145626.557500", "145627.167500", "145627.777500", "145628.387500", "145628.997500", "145629.607500", "145630.217500", "145630.827500", "145631.437500", "145632.047500", "145632.657500", "145633.267500", "145633.877500", "145634.487500", "145635.097500", "145635.707500", "145636.317500", "145636.927500", "145637.537500", "145638.147500", "145638.757500", "145639.367500", "145639.977500", "145640.587500", "145641.197500", "145641.807500", "145642.417500", "145643.027500", "145643.637500", "145644.247500", "145644.857500", "145645.467500", "145646.077500", "145646.687500", "145647.297500", "145647.907500", "145648.517500", "145649.127500", "145649.737500", "145650.347500", "145650.957500", "145651.567500", "145652.177500", "145652.787500", "145653.397500", "145654.007500", "145654.617500", "145655.227500", "145655.837500", "145656.447500", "145657.057500", "145657.667500", "145658.277500", "145658.887500", "145659.497500", "145700.107500", "145700.717500", "145701.327500", "145701.937500", "145702.547500", "145703.157500", "145703.767500", "145704.377500", "145704.987500", "145705.597500", "145706.207500", "145706.817500", "145707.427500", "145708.037500", "145708.647500", "145709.257500", "145709.867500", "145710.477500", "145711.087500", "145711.697500", "145712.307500", "145712.917500", "145713.527500", "145714.137500", "145714.747500", "145715.357500", "145715.967500", "145716.577500", "145717.187500", "145717.797500", "145718.407500", "145719.017500", "145719.627500", "145720.237500", "145720.847500", "145721.457500", "145722.067500", "145722.677500", "145723.287500", "145723.897500", "145724.507500", "145725.117500", "145725.727500", "145726.337500", "145726.947500", "145727.557500", "145728.167500", "145728.777500", "145729.387500", "145729.997500", "145730.607500", "145731.217500", "145731.827500", "145732.437500", "145733.047500", "145733.657500", "145734.267500", "145734.877500", "145735.487500", "145736.097500", "145736.707500", "145737.317500", "145737.927500", "145738.537500", "145739.147500", "145739.757500", "145740.367500", "145740.977500", "145741.587500", "145742.197500", "145742.807500", "145743.417500", "145744.027500", "145744.637500", "145745.247500", "145745.857500", "145746.467500", "145747.077500", "145747.687500", "145748.297500", "145748.907500", "145749.517500", "145750.127500", "145750.737500", "145751.347500", "145751.957500", "145752.567500", "145753.177500", "145753.787500", "145754.397500", "145755.007500", "145755.617500", "145756.227500", "145756.837500", "145757.447500", "145758.057500", "145758.667500", "145759.277500", "145759.887500", "145800.497500", "145801.107500", "145801.717500", "145802.327500", "145802.937500", "145803.547500", "145804.157500", "145804.767500", "145805.377500", "145805.987500", "145806.597500", "145807.207500", "145807.817500", "145808.427500", "145809.037500", "145809.647500", "145810.257500", "145810.867500", "145811.477500", "145812.087500", "145812.697500", "145813.307500", "145813.917500", "145814.527500", "145815.137500", "145815.747500", "145816.357500", "145816.967500", "145817.577500", "145818.187500", "145818.797500", "145819.407500", "145820.017500", "145820.627500", "145821.237500", "145821.847500", "145822.457500", "145823.067500", "145823.677500", "145824.287500", "145824.897500", "145825.507500", "145826.117500", "145826.727500", "145827.337500", "145827.947500", "145828.557500", "145829.167500", "145829.777500", "145830.387500", "145830.997500", "145831.607500", "145832.217500", "145832.827500", "145833.437500", "145834.047500", "145834.657500", "145835.267500", "145835.877500", "145836.487500", "145837.097500", "145837.707500", "145838.317500", "145838.927500", "145839.537500", "145840.147500", "145840.757500", "145841.367500", "145841.977500", "145842.587500", "145843.197500", "145843.807500", "145844.417500", "145845.027500", "145845.637500", "145846.247500", "145846.857500", "145847.467500", "145848.077500", "145848.687500", "145849.297500", "145849.907500", "145850.517500", "145851.127500", "145851.737500", "145852.347500", "145852.957500", "145853.567500", "145854.177500", "145854.787500", "145855.397500", "145856.007500", "145856.617500", "145857.227500", "145857.837500", "145858.447500", "145859.057500", "145859.667500", "145900.277500", "145900.887500", "145901.497500", "145902.107500", "145902.717500", "145903.327500", "145903.937500", "145904.547500", "145905.157500", "145905.767500", "145906.377500", "145906.987500", "145907.597500", "145908.207500", "145908.817500", "145909.427500", "145910.037500", "145910.647500", "145911.257500", "145911.867500", "145912.477500", "145913.087500", "145913.697500", "145914.307500", "145914.917500", "145915.527500", "145916.137500", "145916.747500", "145917.357500", "145917.967500", "145918.577500", "145919.187500", "145919.797500", "145920.407500", "145921.017500", "145921.627500", "145922.237500", "145922.847500", "145923.457500", "145924.067500", "145924.677500", "145925.287500", "145925.897500", "145926.507500", "145927.117500", "145927.727500", "145928.337500", "145928.947500", "145929.557500", "145930.167500", "145930.777500", "145931.387500", "145931.997500", "145932.607500", "145933.217500", "145933.827500", "145934.437500", "145935.047500", "145935.657500", "145936.267500", "145936.877500", "145937.487500", "145938.097500", "145938.707500", "145939.317500", "145939.927500", "145940.537500", "145941.147500", "145941.757500", "145942.367500", "145942.977500", "145943.587500", "145944.197500", "145944.807500", "145945.417500", "145946.027500", "145946.637500", "145947.247500", "145947.857500", "145948.467500", "145949.077500", "145949.687500", "145950.297500", "145950.907500", "145951.517500", "145952.127500", "145952.737500", "145953.347500", "145953.957500", "145954.567500", "145955.177500", "145955.787500", "145956.397500", "145957.007500", "145957.617500", "145958.227500", "145958.837500", "145959.447500", "150000.057500", "150000.667500", "150001.277500", "150001.887500", "150002.497500", "150003.107500", "150003.717500", "150004.327500", "150004.937500", "150005.547500", "150006.157500", "150006.767500", "150007.377500", "150007.987500", "150008.597500", "150009.207500"], "ContentTime": ["145523.574000", "145523.585000", "145523.587000", "145523.590000", "145523.592000", "145523.595000", "145523.597000", "145523.599000", "145523.602000", "145523.604000", "145523.606000", "145523.609000", "145523.611000", "145523.614000", "145523.616000", "145523.618000", "145523.621000", "145523.623000", "145523.625000", "145523.628000", "145523.630000", "145523.632000", "145523.635000", "145523.637000", "145523.639000", "145523.642000", "145523.644000", "145523.646000", "145523.649000", "145523.651000", "145523.654000", "145523.656000", "145523.658000", "145523.661000", "145523.663000", "145523.669000", "145523.671000", "145523.673000", "145523.676000", "145523.678000", "145543.569000", "145543.572000", "145543.574000", "145543.576000", "145543.579000", "145543.585000", "145543.587000", "145543.590000", "145543.592000", "145543.595000", "145543.597000", "145543.599000", "145543.602000", "145543.604000", "145543.606000", "145543.609000", "145543.611000", "145543.614000", "145543.616000", "145543.618000", "145543.621000", "145543.623000", "145543.625000", "145543.628000", "145543.630000", "145543.632000", "145543.635000", "145543.637000", "145543.639000", "145543.642000", "145543.644000", "145543.646000", "145603.569000", "145603.572000", "145603.574000", "145603.577000", "145603.579000", "145603.581000", "145603.584000", "145603.586000", "145603.588000", "145603.591000", "145603.593000", "145603.595000", "145603.598000", "145603.600000", "145603.603000", "145603.606000", "145603.608000", "145603.610000", "145603.613000", "145603.615000", "145603.617000", "145603.620000", "145603.622000", "145603.633000", "145603.635000", "145603.637000", "145603.640000", "145603.642000", "145603.645000", "145603.647000", "145603.649000", "145603.652000", "145603.654000", "145623.568000", "145623.571000", "145623.573000", "145623.576000", "145623.578000", "145623.581000", "145623.583000", "145623.585000", "145623.588000", "145623.590000", "145623.593000", "145623.595000", "145623.598000", "145623.600000", "145623.602000", "145623.605000", "145623.607000", "145623.610000", "145623.613000", "145623.615000", "145623.617000", "145623.620000", "145623.622000", "145623.624000", "145623.627000", "145623.629000", "145623.632000", "145623.634000", "145623.636000", "145623.639000", "145623.644000", "145623.646000", "145623.649000", "145643.568000", "145643.571000", "145643.573000", "145643.576000", "145643.578000", "145643.581000", "145643.583000", "145643.586000", "145643.588000", "145643.590000", "145643.593000", "145643.595000", "145643.597000", "145643.600000", "145643.602000", "145643.605000", "145643.607000", "145643.609000", "145643.612000", "145643.646000", "145643.648000", "145643.650000", "145643.653000", "145643.655000", "145643.658000", "145643.660000", "145643.662000", "145643.665000", "145643.667000", "145643.669000", "145643.672000", "145643.674000", "145643.676000", "145703.568000", "145703.571000", "145703.573000", "145703.575000", "145703.578000", "145703.580000", "145703.583000", "145703.585000", "145703.587000", "145703.590000", "145703.592000", "145703.595000", "145703.597000", "145703.599000", "145703.602000", "145703.604000", "145703.606000", "145703.609000", "145703.611000", "145703.613000", "145703.616000", "145703.618000", "145703.620000", "145703.623000", "145703.625000", "145703.628000", "145703.630000", "145703.632000", "145703.635000", "145703.637000", "145703.639000", "145703.642000", "145703.644000", "145723.568000", "145723.571000", "145723.573000", "145723.576000", "145723.578000", "145723.580000", "145723.583000", "145723.586000", "145723.588000", "145723.591000", "145723.593000", "145723.595000", "145723.598000", "145723.600000", "145723.602000", "145723.605000", "145723.607000", "145723.610000", "145723.612000", "145723.614000", "145723.617000", "145723.619000", "145723.622000", "145723.624000", "145723.626000", "145723.629000", "145723.631000", "145723.634000", "145723.636000", "145723.638000", "145723.641000", "145723.652000", "145743.569000", "145743.572000", "145743.574000", "145743.577000", "145743.579000", "145743.582000", "145743.584000", "145743.586000", "145743.589000", "145743.591000", "145743.594000", "145743.596000", "145743.598000", "145743.601000", "145743.603000", "145743.606000", "145743.608000", "145743.611000", "145743.613000", "145743.616000", "145743.618000", "145743.620000", "145743.623000", "145743.625000", "145743.627000", "145743.630000", "145743.632000", "145743.634000", "145743.637000", "145743.639000", "145743.642000", "145743.645000", "145743.647000", "145803.569000", "145803.572000", "145803.574000", "145803.577000", "145803.579000", "145803.581000", "145803.584000", "145803.586000", "145803.589000", "145803.591000", "145803.593000", "145803.596000", "145803.598000", "145803.601000", "145803.603000", "145803.605000", "145803.608000", "145803.610000", "145803.613000", "145803.615000", "145803.617000", "145803.620000", "145803.622000", "145803.624000", "145803.627000", "145803.629000", "145803.632000", "145803.634000", "145803.636000", "145803.639000", "145803.641000", "145803.643000", "145803.646000", "145823.569000", "145823.572000", "145823.574000", "145823.577000", "145823.579000", "145823.582000", "145823.584000", "145823.587000", "145823.589000", "145823.591000", "145823.594000", "145823.596000", "145823.599000", "145823.601000", "145823.603000", "145823.606000", "145823.608000", "145823.610000", "145823.613000", "145823.615000", "145823.618000", "145823.620000", "145823.622000", "145823.625000", "145823.627000", "145823.630000", "145823.632000", "145823.634000", "145823.637000", "145823.639000", "145823.642000", "145823.644000", "145823.646000", "145843.568000", "145843.571000", "145843.574000", "145843.576000", "145843.578000", "145843.581000", "145843.583000", "145843.586000", "145843.588000", "145843.591000", "145843.593000", "145843.596000", "145843.598000", "145843.600000", "145843.603000", "145843.605000", "145843.607000", "145843.610000", "145843.612000", "145843.615000", "145843.617000", "145843.619000", "145843.622000", "145843.624000", "145843.626000", "145843.629000", "145843.631000", "145843.634000", "145843.636000", "145843.638000", "145843.641000", "145843.643000", "145903.568000", "145903.571000", "145903.573000", "145903.575000", "145903.578000", "145903.580000", "145903.583000", "145903.585000", "145903.587000", "145903.590000", "145903.592000", "145903.595000", "145903.597000", "145903.599000", "145903.602000", "145903.604000", "145903.607000", "145903.609000", "145903.612000", "145903.614000", "145903.616000", "145903.619000", "145903.621000", "145903.623000", "145903.626000", "145903.628000", "145903.631000", "145903.633000", "145903.635000", "145903.638000", "145903.640000", "145903.642000", "145903.645000", "145923.568000", "145923.571000", "145923.573000", "145923.576000", "145923.578000", "145923.580000", "145923.583000", "145923.585000", "145923.587000", "145923.590000", "145923.592000", "145923.595000", "145923.597000", "145923.599000", "145923.602000", "145923.604000", "145923.606000", "145923.609000", "145923.611000", "145923.614000", "145923.616000", "145923.618000", "145923.621000", "145923.623000", "145923.626000", "145923.628000", "145923.630000", "145923.633000", "145923.635000", "145923.638000", "145923.640000", "145923.642000", "145923.656000", "145943.568000", "145943.571000", "145943.573000", "145943.576000", "145943.578000", "145943.580000", "145943.583000", "145943.585000", "145943.587000", "145943.590000", "145943.592000", "145943.595000", "145943.597000", "145943.599000", "145943.602000", "145943.604000", "145943.606000", "145943.609000", "145943.611000", "145943.614000", "145943.616000", "145943.618000", "145943.621000", "145943.623000", "145943.625000", "145943.628000", "145943.630000", "145943.633000", "145943.635000", "145943.637000", "145943.640000", "145943.642000", "145943.644000", "150003.569000", "150003.572000", "150003.574000", "150003.577000", "150003.579000", "150003.581000", "150003.584000", "150003.586000", "150003.589000", "150003.591000", "150003.594000", "150003.596000", "150003.599000", "150003.601000", "150003.603000", "150003.606000", "150003.608000", "150003.610000", "150003.613000", "150003.615000", "150003.618000", "150003.620000", "150003.623000", "150003.625000", "150003.627000", "150003.630000", "150003.632000", "150003.635000", "150003.637000", "150003.647000", "150003.650000", "150003.652000", "150003.655000", "150010.172000", "150010.175000", "150010.177000", "150010.180000", "150010.182000", "150010.185000", "150010.187000", "150010.189000", "150010.192000", "150010.194000", "150010.197000"], "InstanceCreationTime": ["145523.574000", "145523.585000", "145523.587000", "145523.590000", "145523.592000", "145523.595000", "145523.597000", "145523.599000", "145523.602000", "145523.604000", "145523.606000", "145523.609000", "145523.611000", "145523.614000", "145523.616000", "145523.618000", "145523.621000", "145523.623000", "145523.625000", "145523.628000", "145523.630000", "145523.632000", "145523.635000", "145523.637000", "145523.639000", "145523.642000", "145523.644000", "145523.646000", "145523.649000", "145523.651000", "145523.654000", "145523.656000", "145523.658000", "145523.661000", "145523.663000", "145523.669000", "145523.671000", "145523.673000", "145523.676000", "145523.678000", "145543.569000", "145543.572000", "145543.574000", "145543.576000", "145543.579000", "145543.585000", "145543.587000", "145543.590000", "145543.592000", "145543.595000", "145543.597000", "145543.599000", "145543.602000", "145543.604000", "145543.606000", "145543.609000", "145543.611000", "145543.614000", "145543.616000", "145543.618000", "145543.621000", "145543.623000", "145543.625000", "145543.628000", "145543.630000", "145543.632000", "145543.635000", "145543.637000", "145543.639000", "145543.642000", "145543.644000", "145543.646000", "145603.569000", "145603.572000", "145603.574000", "145603.577000", "145603.579000", "145603.581000", "145603.584000", "145603.586000", "145603.588000", "145603.591000", "145603.593000", "145603.595000", "145603.598000", "145603.600000", "145603.603000", "145603.606000", "145603.608000", "145603.610000", "145603.613000", "145603.615000", "145603.617000", "145603.620000", "145603.622000", "145603.633000", "145603.635000", "145603.637000", "145603.640000", "145603.642000", "145603.645000", "145603.647000", "145603.649000", "145603.652000", "145603.654000", "145623.568000", "145623.571000", "145623.573000", "145623.576000", "145623.578000", "145623.581000", "145623.583000", "145623.585000", "145623.588000", "145623.590000", "145623.593000", "145623.595000", "145623.598000", "145623.600000", "145623.602000", "145623.605000", "145623.607000", "145623.610000", "145623.613000", "145623.615000", "145623.617000", "145623.620000", "145623.622000", "145623.624000", "145623.627000", "145623.629000", "145623.632000", "145623.634000", "145623.636000", "145623.639000", "145623.644000", "145623.646000", "145623.649000", "145643.568000", "145643.571000", "145643.573000", "145643.576000", "145643.578000", "145643.581000", "145643.583000", "145643.586000", "145643.588000", "145643.590000", "145643.593000", "145643.595000", "145643.597000", "145643.600000", "145643.602000", "145643.605000", "145643.607000", "145643.609000", "145643.612000", "145643.646000", "145643.648000", "145643.650000", "145643.653000", "145643.655000", "145643.658000", "145643.660000", "145643.662000", "145643.665000", "145643.667000", "145643.669000", "145643.672000", "145643.674000", "145643.676000", "145703.568000", "145703.571000", "145703.573000", "145703.575000", "145703.578000", "145703.580000", "145703.583000", "145703.585000", "145703.587000", "145703.590000", "145703.592000", "145703.595000", "145703.597000", "145703.599000", "145703.602000", "145703.604000", "145703.606000", "145703.609000", "145703.611000", "145703.613000", "145703.616000", "145703.618000", "145703.620000", "145703.623000", "145703.625000", "145703.628000", "145703.630000", "145703.632000", "145703.635000", "145703.637000", "145703.639000", "145703.642000", "145703.644000", "145723.568000", "145723.571000", "145723.573000", "145723.576000", "145723.578000", "145723.580000", "145723.583000", "145723.586000", "145723.588000", "145723.591000", "145723.593000", "145723.595000", "145723.598000", "145723.600000", "145723.602000", "145723.605000", "145723.607000", "145723.610000", "145723.612000", "145723.614000", "145723.617000", "145723.619000", "145723.622000", "145723.624000", "145723.626000", "145723.629000", "145723.631000", "145723.634000", "145723.636000", "145723.638000", "145723.641000", "145723.652000", "145743.569000", "145743.572000", "145743.574000", "145743.577000", "145743.579000", "145743.582000", "145743.584000", "145743.586000", "145743.589000", "145743.591000", "145743.594000", "145743.596000", "145743.598000", "145743.601000", "145743.603000", "145743.606000", "145743.608000", "145743.611000", "145743.613000", "145743.616000", "145743.618000", "145743.620000", "145743.623000", "145743.625000", "145743.627000", "145743.630000", "145743.632000", "145743.634000", "145743.637000", "145743.639000", "145743.642000", "145743.645000", "145743.647000", "145803.569000", "145803.572000", "145803.574000", "145803.577000", "145803.579000", "145803.581000", "145803.584000", "145803.586000", "145803.589000", "145803.591000", "145803.593000", "145803.596000", "145803.598000", "145803.601000", "145803.603000", "145803.605000", "145803.608000", "145803.610000", "145803.613000", "145803.615000", "145803.617000", "145803.620000", "145803.622000", "145803.624000", "145803.627000", "145803.629000", "145803.632000", "145803.634000", "145803.636000", "145803.639000", "145803.641000", "145803.643000", "145803.646000", "145823.569000", "145823.572000", "145823.574000", "145823.577000", "145823.579000", "145823.582000", "145823.584000", "145823.587000", "145823.589000", "145823.591000", "145823.594000", "145823.596000", "145823.599000", "145823.601000", "145823.603000", "145823.606000", "145823.608000", "145823.61000