{"AcquisitionMatrixPE": 64, "AcquisitionNumber": 1, "AcquisitionTime": "15:05:46.727500", "BandwidthPerPixelPhaseEncode": 28.935, "BaseResolution": 64, "BodyPartExamined": "BRAIN", "CoilCombinationMethod": "Sum of Squares", "ConsistencyInfo": "N4_VE11E_LATEST_20181129", "ConversionSoftware": "dcm2niix", "ConversionSoftwareVersion": "v1.0.20230411", "DerivedVendorReportedEchoSpacing": 0.000540003, "DeviceSerialNumber": "166182", "DwellTime": 3.4e-06, "EchoTime": 0.032, "EchoTrainLength": 64, "EffectiveEchoSpacing": 0.000540003, "FlipAngle": 40, "HeudiconvVersion": "0.13.1", "ImageOrientationPatientDICOM": [0.993816, -0.086931, -0.0690917, 0.0871223, 0.996198, -0.000245672], "ImageOrientationText": "Tra>Sag(-3.9)>Cor(0.3)", "ImageType": ["ORIGINAL", "PRIMARY", "M", "ND", "NORM", "MOSAIC"], "ImagingFrequency": 123.255826, "InPlanePhaseEncodingDirectionDICOM": "COL", "InstitutionAddress": "PEARSE STREET .,City,District,IE,D2", "InstitutionName": "TCIN", "InstitutionalDepartmentName": "MRI", "MRAcquisitionType": "2D", "MagneticFieldStrength": 3, "Manufacturer": "Siemens", "ManufacturersModelName": "Prisma", "Modality": "MR", "MultibandAccelerationFactor": 4, "NonlinearGradientCorrection": false, "PartialFourier": 1, "PatientPosition": "HFS", "PercentPhaseFOV": 100, "PercentSampling": 100, "PhaseEncodingDirection": "j-", "PhaseEncodingSteps": 64, "PhaseResolution": 1, "PixelBandwidth": 2300, "ProcedureStepDescription": "Rhodri^Head BOLD", "ProtocolName": "cmrr_mbep2d_Pictures_AP_RDS", "PulseSequenceDetails": "%SiemensSeq%\\ep2d_bold", "ReceiveCoilActiveElements": "HC2,4,6,7;SC", "ReceiveCoilName": "SpecialPurpose_4", "ReconMatrixPE": 64, "RefLinesPE": 12, "RepetitionTime": 0.61, "SAR": 0.288432, "ScanOptions": "FS", "ScanningSequence": "EP", "SequenceName": "*epfid2d1_64", "SequenceVariant": "SK", "SeriesDescription": "cmrr_mbep2d_Pictures_AP_RDS", "SeriesNumber": 10, "ShimSetting": [-3661, -7413, 3941, 890, -277, -155, -149, 33], "SliceThickness": 3, "SliceTiming": [0.2625, 0, 0.3275, 0.065, 0.3925, 0.13, 0.4575, 0.195, 0.5225, 0.2625, 0, 0.3275, 0.065, 0.3925, 0.13, 0.4575, 0.195, 0.5225, 0.2625, 0, 0.3275, 0.065, 0.3925, 0.13, 0.4575, 0.195, 0.5225, 0.2625, 0, 0.3275, 0.065, 0.3925, 0.13, 0.4575, 0.195, 0.5225], "SoftwareVersions": "syngo MR E11", "SpacingBetweenSlices": 3.3, "StationName": "AWP166182", "TaskName": "pictures", "TotalReadoutTime": 0.0340202, "TxRefAmp": 227.342, "dcmmeta_affine": [[-2.9814465045928955, 0.26136693358421326, -0.22720620036125183, 90.35518646240234], [0.2607930898666382, 2.9885928630828857, 0.019058415666222572, -118.67349243164062], [-0.2072751671075821, 0.0007370167295448482, 3.292113780975342, -80.26751708984375], [0.0, 0.0, 0.0, 1.0]], "dcmmeta_reorient_transform": [[0.0, -1.0, 0.0, 63.0], [1.0, 0.0, 0.0, 0.0], [0.0, 0.0, 1.0, 0.0], [0.0, 0.0, 0.0, 1.0]], "dcmmeta_shape": [64, 64, 36, 510], "dcmmeta_slice_dim": 2, "dcmmeta_version": 0.6, "global": {"const": {"AcquisitionMatrix": [64, 0, 0, 64], "AngioFlag": "N", "BitsAllocated": 16, "BitsStored": 12, "BodyPartExamined": "BRAIN", "Columns": 384, "EchoNumbers": 1, "EchoTime": 32.0, "EchoTrainLength": 64, "FlipAngle": 40.0, "HighBit": 11, "ImageOrientationPatient": [0.9938155410835, -0.0869310308543, -0.0690917229161, 0.08712231404849, 0.99619759186618, -0.0002456722489], "ImagePositionPatient": [-625.67147480253, -506.05580505776, -46.939132308779], "ImageType": ["ORIGINAL", "PRIMARY", "M", "ND", "NORM", "MOSAIC"], "ImagedNucleus": "1H", "ImagingFrequency": 123.255826, "InPlanePhaseEncodingDirection": "COL", "MRAcquisitionType": "2D", "MagneticFieldStrength": 3.0, "Manufacturer": "SIEMENS", "ManufacturerModelName": "Prisma", "Modality": "MR", "NumberOfAverages": 1.0, "NumberOfPhaseEncodingSteps": 64, "PercentPhaseFieldOfView": 100.0, "PercentSampling": 100.0, "PerformedProcedureStepStartTime": "144004.782000", "PhotometricInterpretation": "MONOCHROME2", "PixelBandwidth": 2300.0, "PixelRepresentation": 0, "PixelSpacing": [3.0, 3.0], "ProtocolName": "cmrr_mbep2d_Pictures_AP_RDS", "RepetitionTime": 610.0, "Rows": 384, "SAR": 0.2884318819031, "SamplesPerPixel": 1, "ScanOptions": "FS", "ScanningSequence": "EP", "SequenceName": "*epfid2d1_64", "SequenceVariant": "SK", "SeriesDescription": "cmrr_mbep2d_Pictures_AP_RDS", "SeriesNumber": 10, "SeriesTime": "150609.640000", "SliceLocation": -86.982057206078, "SliceThickness": 3.0, "SmallestImagePixelValue": 0, "SoftwareVersions": "syngo MR E11", "SpacingBetweenSlices": 3.299999893002, "SpecificCharacterSet": "ISO_IR 100", "StudyID": "1", "StudyTime": "144004.675000", "TransmitCoilName": "Body", "VariableFlipAngleFlag": "N", "WindowCenterWidthExplanation": "Algo1"}, "slices": {}}, "time": {"samples": {"AcquisitionNumber": [1, 2, 3, 4, 5, 6, 7, 8, 9, 10, 11, 12, 13, 14, 15, 16, 17, 18, 19, 20, 21, 22, 23, 24, 25, 26, 27, 28, 29, 30, 31, 32, 33, 34, 35, 36, 37, 38, 39, 40, 41, 42, 43, 44, 45, 46, 47, 48, 49, 50, 51, 52, 53, 54, 55, 56, 57, 58, 59, 60, 61, 62, 63, 64, 65, 66, 67, 68, 69, 70, 71, 72, 73, 74, 75, 76, 77, 78, 79, 80, 81, 82, 83, 84, 85, 86, 87, 88, 89, 90, 91, 92, 93, 94, 95, 96, 97, 98, 99, 100, 101, 102, 103, 104, 105, 106, 107, 108, 109, 110, 111, 112, 113, 114, 115, 116, 117, 118, 119, 120, 121, 122, 123, 124, 125, 126, 127, 128, 129, 130, 131, 132, 133, 134, 135, 136, 137, 138, 139, 140, 141, 142, 143, 144, 145, 146, 147, 148, 149, 150, 151, 152, 153, 154, 155, 156, 157, 158, 159, 160, 161, 162, 163, 164, 165, 166, 167, 168, 169, 170, 171, 172, 173, 174, 175, 176, 177, 178, 179, 180, 181, 182, 183, 184, 185, 186, 187, 188, 189, 190, 191, 192, 193, 194, 195, 196, 197, 198, 199, 200, 201, 202, 203, 204, 205, 206, 207, 208, 209, 210, 211, 212, 213, 214, 215, 216, 217, 218, 219, 220, 221, 222, 223, 224, 225, 226, 227, 228, 229, 230, 231, 232, 233, 234, 235, 236, 237, 238, 239, 240, 241, 242, 243, 244, 245, 246, 247, 248, 249, 250, 251, 252, 253, 254, 255, 256, 257, 258, 259, 260, 261, 262, 263, 264, 265, 266, 267, 268, 269, 270, 271, 272, 273, 274, 275, 276, 277, 278, 279, 280, 281, 282, 283, 284, 285, 286, 287, 288, 289, 290, 291, 292, 293, 294, 295, 296, 297, 298, 299, 300, 301, 302, 303, 304, 305, 306, 307, 308, 309, 310, 311, 312, 313, 314, 315, 316, 317, 318, 319, 320, 321, 322, 323, 324, 325, 326, 327, 328, 329, 330, 331, 332, 333, 334, 335, 336, 337, 338, 339, 340, 341, 342, 343, 344, 345, 346, 347, 348, 349, 350, 351, 352, 353, 354, 355, 356, 357, 358, 359, 360, 361, 362, 363, 364, 365, 366, 367, 368, 369, 370, 371, 372, 373, 374, 375, 376, 377, 378, 379, 380, 381, 382, 383, 384, 385, 386, 387, 388, 389, 390, 391, 392, 393, 394, 395, 396, 397, 398, 399, 400, 401, 402, 403, 404, 405, 406, 407, 408, 409, 410, 411, 412, 413, 414, 415, 416, 417, 418, 419, 420, 421, 422, 423, 424, 425, 426, 427, 428, 429, 430, 431, 432, 433, 434, 435, 436, 437, 438, 439, 440, 441, 442, 443, 444, 445, 446, 447, 448, 449, 450, 451, 452, 453, 454, 455, 456, 457, 458, 459, 460, 461, 462, 463, 464, 465, 466, 467, 468, 469, 470, 471, 472, 473, 474, 475, 476, 477, 478, 479, 480, 481, 482, 483, 484, 485, 486, 487, 488, 489, 490, 491, 492, 493, 494, 495, 496, 497, 498, 499, 500, 501, 502, 503, 504, 505, 506, 507, 508, 509, 510], "AcquisitionTime": ["150546.727500", "150547.337500", "150547.947500", "150548.557500", "150549.167500", "150549.777500", "150550.387500", "150550.997500", "150551.607500", "150552.217500", "150552.827500", "150553.437500", "150554.047500", "150554.657500", "150555.267500", "150555.877500", "150556.487500", "150557.097500", "150557.707500", "150558.317500", "150558.927500", "150559.537500", "150600.147500", "150600.757500", "150601.367500", "150601.977500", "150602.587500", "150603.197500", "150603.807500", "150604.417500", "150605.027500", "150605.637500", "150606.247500", "150606.857500", "150607.467500", "150608.077500", "150608.687500", "150609.297500", "150609.907500", "150610.517500", "150611.127500", "150611.737500", "150612.347500", "150612.957500", "150613.567500", "150614.177500", "150614.787500", "150615.397500", "150616.007500", "150616.617500", "150617.227500", "150617.837500", "150618.447500", "150619.057500", "150619.667500", "150620.277500", "150620.887500", "150621.497500", "150622.107500", "150622.717500", "150623.327500", "150623.937500", "150624.547500", "150625.157500", "150625.767500", "150626.377500", "150626.987500", "150627.597500", "150628.207500", "150628.817500", "150629.427500", "150630.037500", "150630.647500", "150631.257500", "150631.867500", "150632.477500", "150633.087500", "150633.697500", "150634.307500", "150634.917500", "150635.527500", "150636.137500", "150636.747500", "150637.357500", "150637.967500", "150638.577500", "150639.187500", "150639.797500", "150640.407500", "150641.017500", "150641.627500", "150642.237500", "150642.847500", "150643.457500", "150644.067500", "150644.677500", "150645.287500", "150645.897500", "150646.507500", "150647.117500", "150647.727500", "150648.337500", "150648.947500", "150649.557500", "150650.167500", "150650.777500", "150651.387500", "150651.997500", "150652.607500", "150653.217500", "150653.827500", "150654.437500", "150655.047500", "150655.657500", "150656.267500", "150656.877500", "150657.487500", "150658.097500", "150658.707500", "150659.317500", "150659.927500", "150700.537500", "150701.147500", "150701.757500", "150702.367500", "150702.977500", "150703.587500", "150704.197500", "150704.807500", "150705.417500", "150706.027500", "150706.637500", "150707.247500", "150707.857500", "150708.467500", "150709.077500", "150709.687500", "150710.297500", "150710.907500", "150711.517500", "150712.127500", "150712.737500", "150713.347500", "150713.957500", "150714.567500", "150715.177500", "150715.787500", "150716.397500", "150717.007500", "150717.617500", "150718.227500", "150718.837500", "150719.447500", "150720.057500", "150720.667500", "150721.277500", "150721.887500", "150722.497500", "150723.107500", "150723.717500", "150724.327500", "150724.937500", "150725.547500", "150726.157500", "150726.767500", "150727.377500", "150727.987500", "150728.597500", "150729.207500", "150729.817500", "150730.427500", "150731.037500", "150731.647500", "150732.257500", "150732.867500", "150733.477500", "150734.087500", "150734.697500", "150735.307500", "150735.917500", "150736.527500", "150737.137500", "150737.747500", "150738.357500", "150738.967500", "150739.577500", "150740.187500", "150740.797500", "150741.407500", "150742.017500", "150742.627500", "150743.237500", "150743.847500", "150744.457500", "150745.067500", "150745.677500", "150746.287500", "150746.897500", "150747.507500", "150748.117500", "150748.727500", "150749.337500", "150749.947500", "150750.557500", "150751.167500", "150751.777500", "150752.387500", "150752.997500", "150753.607500", "150754.217500", "150754.827500", "150755.437500", "150756.047500", "150756.657500", "150757.267500", "150757.877500", "150758.487500", "150759.097500", "150759.707500", "150800.317500", "150800.927500", "150801.537500", "150802.147500", "150802.757500", "150803.367500", "150803.977500", "150804.587500", "150805.197500", "150805.807500", "150806.417500", "150807.027500", "150807.637500", "150808.247500", "150808.857500", "150809.467500", "150810.077500", "150810.687500", "150811.297500", "150811.907500", "150812.517500", "150813.127500", "150813.737500", "150814.347500", "150814.957500", "150815.567500", "150816.177500", "150816.787500", "150817.397500", "150818.007500", "150818.617500", "150819.227500", "150819.837500", "150820.447500", "150821.057500", "150821.667500", "150822.277500", "150822.887500", "150823.497500", "150824.107500", "150824.717500", "150825.327500", "150825.937500", "150826.547500", "150827.157500", "150827.767500", "150828.377500", "150828.987500", "150829.597500", "150830.207500", "150830.817500", "150831.427500", "150832.037500", "150832.647500", "150833.257500", "150833.867500", "150834.477500", "150835.087500", "150835.697500", "150836.307500", "150836.917500", "150837.527500", "150838.137500", "150838.747500", "150839.357500", "150839.967500", "150840.577500", "150841.187500", "150841.797500", "150842.407500", "150843.017500", "150843.627500", "150844.237500", "150844.847500", "150845.457500", "150846.067500", "150846.677500", "150847.287500", "150847.897500", "150848.507500", "150849.117500", "150849.727500", "150850.337500", "150850.947500", "150851.557500", "150852.167500", "150852.777500", "150853.387500", "150853.997500", "150854.607500", "150855.217500", "150855.827500", "150856.437500", "150857.047500", "150857.657500", "150858.267500", "150858.877500", "150859.487500", "150900.097500", "150900.707500", "150901.317500", "150901.927500", "150902.537500", "150903.147500", "150903.757500", "150904.367500", "150904.977500", "150905.587500", "150906.197500", "150906.807500", "150907.417500", "150908.027500", "150908.637500", "150909.247500", "150909.857500", "150910.467500", "150911.077500", "150911.687500", "150912.297500", "150912.907500", "150913.517500", "150914.127500", "150914.737500", "150915.347500", "150915.957500", "150916.567500", "150917.177500", "150917.787500", "150918.397500", "150919.007500", "150919.617500", "150920.227500", "150920.837500", "150921.447500", "150922.057500", "150922.667500", "150923.277500", "150923.887500", "150924.497500", "150925.107500", "150925.717500", "150926.327500", "150926.937500", "150927.547500", "150928.157500", "150928.767500", "150929.377500", "150929.987500", "150930.597500", "150931.207500", "150931.817500", "150932.427500", "150933.037500", "150933.647500", "150934.257500", "150934.867500", "150935.477500", "150936.087500", "150936.697500", "150937.307500", "150937.917500", "150938.527500", "150939.137500", "150939.747500", "150940.357500", "150940.967500", "150941.577500", "150942.187500", "150942.797500", "150943.407500", "150944.017500", "150944.627500", "150945.237500", "150945.847500", "150946.457500", "150947.067500", "150947.677500", "150948.287500", "150948.897500", "150949.507500", "150950.117500", "150950.727500", "150951.337500", "150951.947500", "150952.557500", "150953.167500", "150953.777500", "150954.387500", "150954.997500", "150955.607500", "150956.217500", "150956.827500", "150957.437500", "150958.047500", "150958.657500", "150959.267500", "150959.877500", "151000.487500", "151001.097500", "151001.707500", "151002.317500", "151002.927500", "151003.537500", "151004.147500", "151004.757500", "151005.367500", "151005.977500", "151006.587500", "151007.197500", "151007.807500", "151008.417500", "151009.027500", "151009.637500", "151010.247500", "151010.857500", "151011.467500", "151012.077500", "151012.687500", "151013.297500", "151013.907500", "151014.517500", "151015.127500", "151015.737500", "151016.347500", "151016.957500", "151017.567500", "151018.177500", "151018.787500", "151019.397500", "151020.007500", "151020.617500", "151021.227500", "151021.837500", "151022.447500", "151023.057500", "151023.667500", "151024.277500", "151024.887500", "151025.497500", "151026.107500", "151026.717500", "151027.327500", "151027.937500", "151028.547500", "151029.157500", "151029.767500", "151030.377500", "151030.987500", "151031.597500", "151032.207500", "151032.817500", "151033.427500", "151034.037500", "151034.647500", "151035.257500", "151035.867500", "151036.477500", "151037.087500", "151037.697500", "151038.307500", "151038.917500", "151039.527500", "151040.137500", "151040.747500", "151041.357500", "151041.967500", "151042.577500", "151043.187500", "151043.797500", "151044.407500", "151045.017500", "151045.627500", "151046.237500", "151046.847500", "151047.457500", "151048.067500", "151048.677500", "151049.287500", "151049.897500", "151050.507500", "151051.117500", "151051.727500", "151052.337500", "151052.947500", "151053.557500", "151054.167500", "151054.777500", "151055.387500", "151055.997500", "151056.607500", "151057.217500"], "ContentTime": ["150609.644000", "150609.647000", "150609.649000", "150609.652000", "150609.654000", "150609.657000", "150609.659000", "150609.661000", "150609.664000", "150609.666000", "150609.668000", "150609.671000", "150609.673000", "150609.677000", "150609.680000", "150609.682000", "150609.685000", "150609.687000", "150609.689000", "150609.692000", "150609.694000", "150609.696000", "150609.699000", "150609.701000", "150609.704000", "150609.706000", "150609.708000", "150609.711000", "150609.713000", "150609.715000", "150609.718000", "150609.720000", "150609.722000", "150609.725000", "150609.727000", "150609.731000", "150629.638000", "150629.641000", "150629.644000", "150629.646000", "150629.649000", "150629.651000", "150629.653000", "150629.656000", "150629.658000", "150629.661000", "150629.663000", "150629.665000", "150629.668000", "150629.674000", "150629.676000", "150629.679000", "150629.681000", "150629.684000", "150629.686000", "150629.688000", "150629.691000", "150629.694000", "150629.697000", "150629.699000", "150629.702000", "150629.704000", "150629.707000", "150629.709000", "150629.712000", "150629.714000", "150629.717000", "150629.719000", "150649.638000", "150649.641000", "150649.643000", "150649.645000", "150649.648000", "150649.650000", "150649.653000", "150649.655000", "150649.657000", "150649.660000", "150649.662000", "150649.665000", "150649.667000", "150649.670000", "150649.672000", "150649.674000", "150649.677000", "150649.679000", "150649.682000", "150649.684000", "150649.686000", "150649.689000", "150649.691000", "150649.693000", "150649.696000", "150649.708000", "150649.711000", "150649.713000", "150649.716000", "150649.718000", "150649.720000", "150649.723000", "150649.725000", "150709.638000", "150709.641000", "150709.643000", "150709.646000", "150709.648000", "150709.651000", "150709.653000", "150709.655000", "150709.658000", "150709.660000", "150709.662000", "150709.665000", "150709.667000", "150709.670000", "150709.672000", "150709.674000", "150709.677000", "150709.679000", "150709.682000", "150709.684000", "150709.686000", "150709.689000", "150709.691000", "150709.694000", "150709.696000", "150709.699000", "150709.701000", "150709.703000", "150709.706000", "150709.708000", "150709.710000", "150709.713000", "150709.715000", "150729.638000", "150729.641000", "150729.643000", "150729.646000", "150729.648000", "150729.650000", "150729.653000", "150729.655000", "150729.658000", "150729.660000", "150729.662000", "150729.665000", "150729.667000", "150729.669000", "150729.672000", "150729.674000", "150729.677000", "150729.679000", "150729.681000", "150729.684000", "150729.686000", "150729.688000", "150729.691000", "150729.693000", "150729.696000", "150729.698000", "150729.700000", "150729.703000", "150729.705000", "150729.708000", "150729.710000", "150729.712000", "150729.715000", "150749.638000", "150749.641000", "150749.643000", "150749.646000", "150749.648000", "150749.650000", "150749.653000", "150749.656000", "150749.658000", "150749.697000", "150749.699000", "150749.701000", "150749.704000", "150749.706000", "150749.708000", "150749.711000", "150749.713000", "150749.715000", "150749.718000", "150749.720000", "150749.723000", "150749.725000", "150749.727000", "150749.730000", "150749.732000", "150749.734000", "150749.744000", "150749.747000", "150749.749000", "150749.752000", "150749.754000", "150749.756000", "150749.759000", "150809.638000", "150809.641000", "150809.644000", "150809.646000", "150809.649000", "150809.651000", "150809.654000", "150809.656000", "150809.659000", "150809.661000", "150809.663000", "150809.666000", "150809.668000", "150809.670000", "150809.673000", "150809.680000", "150809.683000", "150809.685000", "150809.687000", "150809.690000", "150809.692000", "150809.695000", "150809.697000", "150809.699000", "150809.702000", "150809.704000", "150809.707000", "150809.709000", "150809.711000", "150809.714000", "150809.716000", "150809.719000", "150829.639000", "150829.642000", "150829.644000", "150829.647000", "150829.650000", "150829.652000", "150829.655000", "150829.657000", "150829.659000", "150829.662000", "150829.664000", "150829.667000", "150829.669000", "150829.671000", "150829.674000", "150829.676000", "150829.679000", "150829.681000", "150829.684000", "150829.686000", "150829.688000", "150829.691000", "150829.693000", "150829.696000", "150829.698000", "150829.700000", "150829.703000", "150829.705000", "150829.708000", "150829.710000", "150829.713000", "150829.715000", "150829.718000", "150849.638000", "150849.641000", "150849.644000", "150849.646000", "150849.648000", "150849.651000", "150849.653000", "150849.656000", "150849.658000", "150849.661000", "150849.663000", "150849.665000", "150849.668000", "150849.670000", "150849.672000", "150849.675000", "150849.677000", "150849.680000", "150849.682000", "150849.684000", "150849.687000", "150849.689000", "150849.691000", "150849.694000", "150849.696000", "150849.698000", "150849.701000", "150849.703000", "150849.705000", "150849.708000", "150849.711000", "150849.713000", "150849.715000", "150909.638000", "150909.641000", "150909.643000", "150909.646000", "150909.648000", "150909.651000", "150909.653000", "150909.655000", "150909.658000", "150909.660000", "150909.662000", "150909.665000", "150909.667000", "150909.670000", "150909.672000", "150909.674000", "150909.677000", "150909.679000", "150909.682000", "150909.684000", "150909.686000", "150909.689000", "150909.691000", "150909.694000", "150909.696000", "150909.698000", "150909.701000", "150909.703000", "150909.706000", "150909.708000", "150909.710000", "150909.713000", "150909.715000", "150929.638000", "150929.641000", "150929.643000", "150929.646000", "150929.648000", "150929.651000", "150929.653000", "150929.655000", "150929.658000", "150929.660000", "150929.662000", "150929.665000", "150929.667000", "150929.670000", "150929.672000", "150929.674000", "150929.677000", "150929.679000", "150929.682000", "150929.684000", "150929.686000", "150929.689000", "150929.691000", "150929.694000", "150929.696000", "150929.699000", "150929.701000", "150929.703000", "150929.706000", "150929.708000", "150929.710000", "150929.713000", "150929.715000", "150949.638000", "150949.641000", "150949.644000", "150949.646000", "150949.648000", "150949.651000", "150949.653000", "150949.655000", "150949.658000", "150949.660000", "150949.662000", "150949.665000", "150949.667000", "150949.670000", "150949.672000", "150949.674000", "150949.677000", "150949.679000", "150949.681000", "150949.684000", "150949.686000", "150949.689000", "150949.691000", "150949.694000", "150949.696000", "150949.699000", "150949.701000", "150949.703000", "150949.706000", "150949.708000", "150949.710000", "150949.713000", "151009.638000", "151009.641000", "151009.643000", "151009.646000", "151009.648000", "151009.650000", "151009.653000", "151009.655000", "151009.657000", "151009.660000", "151009.662000", "151009.664000", "151009.667000", "151009.669000", "151009.672000", "151009.674000", "151009.676000", "151009.679000", "151009.681000", "151009.684000", "151009.686000", "151009.689000", "151009.692000", "151009.694000", "151009.696000", "151009.699000", "151009.701000", "151009.703000", "151009.706000", "151009.708000", "151009.711000", "151009.713000", "151009.716000", "151029.638000", "151029.641000", "151029.643000", "151029.646000", "151029.648000", "151029.650000", "151029.653000", "151029.655000", "151029.658000", "151029.660000", "151029.662000", "151029.665000", "151029.667000", "151029.669000", "151029.672000", "151029.674000", "151029.677000", "151029.679000", "151029.681000", "151029.684000", "151029.686000", "151029.688000", "151029.691000", "151029.713000", "151029.715000", "151029.718000", "151029.720000", "151029.723000", "151029.725000", "151029.727000", "151029.730000", "151029.732000", "151029.734000", "151049.639000", "151049.642000", "151049.644000", "151049.647000", "151049.650000", "151049.652000", "151049.654000", "151049.657000", "151049.659000", "151049.662000", "151049.664000", "151049.666000", "151049.669000", "151049.671000", "151049.673000", "151049.676000", "151049.678000", "151049.681000", "151049.683000", "151049.685000", "151049.688000", "151049.690000", "151049.692000", "151049.695000", "151049.697000", "151049.700000", "151049.702000", "151049.705000", "151049.707000", "151049.709000", "151049.712000", "151049.714000", "151049.716000", "151058.621000", "151058.623000", "151058.626000", "151058.628000", "151058.630000", "151058.633000", "151058.635000", "151058.638000", "151058.640000", "151058.642000", "151058.645000", "151058.647000", "151058.649000", "151058.652000", "151058.654000"], "InstanceCreationTime": ["150609.644000", "150609.647000", "150609.649000", "150609.652000", "150609.654000", "150609.657000", "150609.659000", "150609.661000", "150609.664000", "150609.666000", "150609.668000", "150609.671000", "150609.673000", "150609.677000", "150609.680000", "150609.682000", "150609.685000", "150609.687000", "150609.689000", "150609.692000", "150609.694000", "150609.696000", "150609.699000", "150609.701000", "150609.704000", "150609.706000", "150609.708000", "150609.711000", "150609.713000", "150609.715000", "150609.718000", "150609.720000", "150609.722000", "150609.725000", "150609.727000", "150609.731000", "150629.638000", "150629.641000", "150629.644000", "150629.646000", "150629.649000", "150629.651000", "150629.653000", "150629.656000", "150629.658000", "150629.661000", "150629.663000", "150629.665000", "150629.668000", "150629.674000", "150629.676000", "150629.679000", "150629.681000", "150629.684000", "150629.686000", "150629.688000", "150629.691000", "150629.694000", "150629.697000", "150629.699000", "150629.702000", "150629.704000", "150629.707000", "150629.709000", "150629.712000", "150629.714000", "150629.717000", "150629.719000", "150649.638000", "150649.641000", "150649.643000", "150649.645000", "150649.648000", "150649.650000", "150649.653000", "150649.655000", "150649.657000", "150649.660000", "150649.662000", "150649.665000", "150649.667000", "150649.670000", "150649.672000", "150649.674000", "150649.677000", "150649.679000", "150649.682000", "150649.684000", "150649.686000", "150649.689000", "150649.691000", "150649.693000", "150649.696000", "150649.708000", "150649.711000", "150649.713000", "150649.716000", "150649.718000", "150649.720000", "150649.723000", "150649.725000", "150709.638000", "150709.641000", "150709.643000", "150709.646000", "150709.648000", "150709.651000", "150709.653000", "150709.655000", "150709.658000", "150709.660000", "150709.662000", "150709.665000", "150709.667000", "150709.670000", "150709.672000", "150709.674000", "150709.677000", "150709.679000", "150709.682000", "150709.684000", "150709.686000", "150709.689000", "150709.691000", "150709.694000", "150709.696000", "150709.699000", "150709.701000", "150709.703000", "150709.706000", "150709.708000", "150709.710000", "150709.713000", "150709.715000", "150729.638000", "150729.641000", "150729.643000", "150729.646000", "150729.648000", "150729.650000", "150729.653000", "150729.655000", "150729.658000", "150729.660000", "150729.662000", "150729.665000", "150729.667000", "150729.669000", "150729.672000", "150729.674000", "150729.677000", "150729.679000", "150729.681000", "150729.684000", "150729.686000", "150729.688000", "150729.691000", "150729.693000", "150729.696000", "150729.698000", "150729.700000", "150729.703000", "150729.705000", "150729.708000", "150729.710000", "150729.712000", "150729.715000", "150749.638000", "150749.641000", "150749.643000", "150749.646000", "150749.648000", "150749.650000", "150749.653000", "150749.656000", "150749.658000", "150749.697000", "150749.699000", "150749.701000", "150749.704000", "150749.706000", "150749.708000", "150749.711000", "150749.713000", "150749.715000", "150749.718000", "150749.720000", "150749.723000", "150749.725000", "150749.727000", "150749.730000", "150749.732000", "150749.734000", "150749.744000", "150749.747000", "150749.749000", "150749.752000", "150749.754000", "150749.756000", "150749.759000", "150809.638000", "150809.641000", "150809.644000", "150809.646000", "150809.649000", "150809.651000", "150809.654000", "150809.656000", "150809.659000", "150809.661000", "150809.663000", "150809.666000", "150809.668000", "150809.670000", "150809.673000", "150809.680000", "150809.683000", "150809.685000", "150809.687000", "150809.690000", "150809.692000", "150809.695000", "150809.697000", "150809.699000", "150809.702000", "150809.704000", "150809.707000", "150809.709000", "150809.711000", "150809.714000", "150809.716000", "150809.719000", "150829.639000", "150829.642000", "150829.644000", "150829.647000", "150829.650000", "150829.652000", "150829.655000", "150829.657000", "150829.659000", "150829.662000", "150829.664000", "150829.667000", "150829.669000", "150829.671000", "150829.674000", "150829.676000", "150829.679000", "150829.681000", "150829.684000", "150829.686000", "150829.688000", "150829.691000", "150829.693000", "150829.696000", "150829.698000", "150829.700000", "150829.703000", "150829.705000", "150829.708000", "150829.710000", "150829.713000", "150829.715000", "150829.718000", "150849.638000", "150849.641000", "150849.644000", "150849.646000", "150849.648000", "150849.651000", "150849.653000", "150849.656000", "150849.658000", "150849.661000", "150849.663000", "150849.665000", "150849.668000", "150849.670000", "150849.672000", "150849.675000", "150849.677000", "150849.680000", "150849.682000", "150849.684000", "150849.687000", "150849.689000", "150849.691000", "150849.694000", "150849.696000", "150849.698000", "150849.701000", "150849.703000", "150849.705000", "150849.708000", "150849.711000", "150849.713000", "150849.715000", "150909.638000", "150909.641000", "150909.643000", "150909.646000", "150909.648000", "150909.651000", "150909.653000", "150909.655000", "150909.658000", "150909.660000", "150909.662000", "150909.665000", "150909.667000", "150909.670000", "150909.672000", "150909.674000", "150909.677000", "150909.679000", "150909.682000", "150909.684000", "150909.686000", "15