{"AcquisitionMatrixPE": 64, "AcquisitionNumber": 1, "AcquisitionTime": "10:04:16.695000", "BandwidthPerPixelPhaseEncode": 28.935, "BaseResolution": 64, "BodyPartExamined": "BRAIN", "CoilCombinationMethod": "Sum of Squares", "ConsistencyInfo": "N4_VE11E_LATEST_20181129", "ConversionSoftware": "dcm2niix", "ConversionSoftwareVersion": "v1.0.20230411", "DerivedVendorReportedEchoSpacing": 0.000540003, "DeviceSerialNumber": "166182", "DwellTime": 3.4e-06, "EchoTime": 0.032, "EchoTrainLength": 64, "EffectiveEchoSpacing": 0.000540003, "FlipAngle": 40, "HeudiconvVersion": "0.13.1", "ImageOrientationPatientDICOM": [0.996195, -0.0854611, -0.0170709, 0.0784023, 0.964378, -0.252641], "ImageOrientationText": "Tra>Cor(-14.5)>Sag(-2.2)", "ImageType": ["ORIGINAL", "PRIMARY", "M", "ND", "NORM", "MOSAIC"], "ImagingFrequency": 123.256352, "InPlanePhaseEncodingDirectionDICOM": "COL", "InstitutionAddress": "PEARSE STREET .,City,District,IE,D2", "InstitutionName": "TCIN", "InstitutionalDepartmentName": "MRI", "MRAcquisitionType": "2D", "MagneticFieldStrength": 3, "Manufacturer": "Siemens", "ManufacturersModelName": "Prisma", "Modality": "MR", "MultibandAccelerationFactor": 4, "NonlinearGradientCorrection": false, "PartialFourier": 1, "PatientPosition": "HFS", "PercentPhaseFOV": 100, "PercentSampling": 100, "PhaseEncodingDirection": "j-", "PhaseEncodingSteps": 64, "PhaseResolution": 1, "PixelBandwidth": 2300, "ProcedureStepDescription": "Rhodri^Head BOLD", "ProtocolName": "cmrr_mbep2d_Pictures_AP_RDS", "PulseSequenceDetails": "%SiemensSeq%\\ep2d_bold", "ReceiveCoilActiveElements": "HC2,4,6,7", "ReceiveCoilName": "HeadNeck_64", "ReconMatrixPE": 64, "RefLinesPE": 12, "RepetitionTime": 0.61, "SAR": 0.150388, "ScanOptions": "FS", "ScanningSequence": "EP", "SequenceName": "*epfid2d1_64", "SequenceVariant": "SK", "SeriesDescription": "cmrr_mbep2d_Pictures_AP_RDS", "SeriesNumber": 6, "ShimSetting": [-3599, -7400, 3933, 652, -76, 468, 48, 85], "SliceThickness": 3, "SliceTiming": [0.2625, 0, 0.3275, 0.065, 0.3925, 0.1325, 0.46, 0.1975, 0.525, 0.2625, 0, 0.3275, 0.065, 0.3925, 0.1325, 0.46, 0.1975, 0.525, 0.2625, 0, 0.3275, 0.065, 0.3925, 0.1325, 0.46, 0.1975, 0.525, 0.2625, 0, 0.3275, 0.065, 0.3925, 0.1325, 0.46, 0.1975, 0.525], "SoftwareVersions": "syngo MR E11", "SpacingBetweenSlices": 3.3, "StationName": "AWP166182", "TaskName": "pictures", "TotalReadoutTime": 0.0340202, "TxRefAmp": 234.869, "dcmmeta_affine": [[-2.9885857105255127, 0.2352069914340973, -0.12557758390903473, 92.65424346923828], [0.25638332962989807, 2.8931350708007812, -0.826126217842102, -92.03399658203125], [-0.05121280997991562, 0.7579227089881897, 3.192451238632202, -104.26513671875], [0.0, 0.0, 0.0, 1.0]], "dcmmeta_reorient_transform": [[0.0, -1.0, 0.0, 63.0], [1.0, 0.0, 0.0, 0.0], [0.0, 0.0, 1.0, 0.0], [0.0, 0.0, 0.0, 1.0]], "dcmmeta_shape": [64, 64, 36, 510], "dcmmeta_slice_dim": 2, "dcmmeta_version": 0.6, "global": {"const": {"AcquisitionMatrix": [64, 0, 0, 64], "AngioFlag": "N", "BitsAllocated": 16, "BitsStored": 12, "BodyPartExamined": "BRAIN", "Columns": 384, "EchoNumbers": 1, "EchoTime": 32.0, "EchoTrainLength": 64, "FlipAngle": 40.0, "HighBit": 11, "ImageOrientationPatient": [0.99619525291124, -0.0854611093741, -0.0170709361681, 0.07840232968913, 0.9643783720323, -0.2526409116823], "ImagePositionPatient": [-623.27912018691, -512.11380140575, 72.945683907715], "ImageType": ["ORIGINAL", "PRIMARY", "M", "ND", "NORM", "MOSAIC"], "ImagedNucleus": "1H", "ImagingFrequency": 123.256352, "InPlanePhaseEncodingDirection": "COL", "MRAcquisitionType": "2D", "MagneticFieldStrength": 3.0, "Manufacturer": "SIEMENS", "ManufacturerModelName": "Prisma", "Modality": "MR", "NumberOfAverages": 1.0, "NumberOfPhaseEncodingSteps": 64, "PercentPhaseFieldOfView": 100.0, "PercentSampling": 100.0, "PerformedProcedureStepStartTime": "095701.545000", "PhotometricInterpretation": "MONOCHROME2", "PixelBandwidth": 2300.0, "PixelRepresentation": 0, "PixelSpacing": [3.0, 3.0], "ProtocolName": "cmrr_mbep2d_Pictures_AP_RDS", "RepetitionTime": 610.0, "Rows": 384, "SAR": 0.15038773659906, "SamplesPerPixel": 1, "ScanOptions": "FS", "ScanningSequence": "EP", "SequenceName": "*epfid2d1_64", "SequenceVariant": "SK", "SeriesDescription": "cmrr_mbep2d_Pictures_AP_RDS", "SeriesNumber": 6, "SeriesTime": "100434.434000", "SliceLocation": -81.353022158395, "SliceThickness": 3.0, "SmallestImagePixelValue": 0, "SoftwareVersions": "syngo MR E11", "SpacingBetweenSlices": 3.2999999423404, "SpecificCharacterSet": "ISO_IR 100", "StudyID": "1", "StudyTime": "095701.301000", "TransmitCoilName": "Body", "VariableFlipAngleFlag": "N", "WindowCenterWidthExplanation": "Algo1"}, "slices": {}}, "time": {"samples": {"AcquisitionNumber": [1, 2, 3, 4, 5, 6, 7, 8, 9, 10, 11, 12, 13, 14, 15, 16, 17, 18, 19, 20, 21, 22, 23, 24, 25, 26, 27, 28, 29, 30, 31, 32, 33, 34, 35, 36, 37, 38, 39, 40, 41, 42, 43, 44, 45, 46, 47, 48, 49, 50, 51, 52, 53, 54, 55, 56, 57, 58, 59, 60, 61, 62, 63, 64, 65, 66, 67, 68, 69, 70, 71, 72, 73, 74, 75, 76, 77, 78, 79, 80, 81, 82, 83, 84, 85, 86, 87, 88, 89, 90, 91, 92, 93, 94, 95, 96, 97, 98, 99, 100, 101, 102, 103, 104, 105, 106, 107, 108, 109, 110, 111, 112, 113, 114, 115, 116, 117, 118, 119, 120, 121, 122, 123, 124, 125, 126, 127, 128, 129, 130, 131, 132, 133, 134, 135, 136, 137, 138, 139, 140, 141, 142, 143, 144, 145, 146, 147, 148, 149, 150, 151, 152, 153, 154, 155, 156, 157, 158, 159, 160, 161, 162, 163, 164, 165, 166, 167, 168, 169, 170, 171, 172, 173, 174, 175, 176, 177, 178, 179, 180, 181, 182, 183, 184, 185, 186, 187, 188, 189, 190, 191, 192, 193, 194, 195, 196, 197, 198, 199, 200, 201, 202, 203, 204, 205, 206, 207, 208, 209, 210, 211, 212, 213, 214, 215, 216, 217, 218, 219, 220, 221, 222, 223, 224, 225, 226, 227, 228, 229, 230, 231, 232, 233, 234, 235, 236, 237, 238, 239, 240, 241, 242, 243, 244, 245, 246, 247, 248, 249, 250, 251, 252, 253, 254, 255, 256, 257, 258, 259, 260, 261, 262, 263, 264, 265, 266, 267, 268, 269, 270, 271, 272, 273, 274, 275, 276, 277, 278, 279, 280, 281, 282, 283, 284, 285, 286, 287, 288, 289, 290, 291, 292, 293, 294, 295, 296, 297, 298, 299, 300, 301, 302, 303, 304, 305, 306, 307, 308, 309, 310, 311, 312, 313, 314, 315, 316, 317, 318, 319, 320, 321, 322, 323, 324, 325, 326, 327, 328, 329, 330, 331, 332, 333, 334, 335, 336, 337, 338, 339, 340, 341, 342, 343, 344, 345, 346, 347, 348, 349, 350, 351, 352, 353, 354, 355, 356, 357, 358, 359, 360, 361, 362, 363, 364, 365, 366, 367, 368, 369, 370, 371, 372, 373, 374, 375, 376, 377, 378, 379, 380, 381, 382, 383, 384, 385, 386, 387, 388, 389, 390, 391, 392, 393, 394, 395, 396, 397, 398, 399, 400, 401, 402, 403, 404, 405, 406, 407, 408, 409, 410, 411, 412, 413, 414, 415, 416, 417, 418, 419, 420, 421, 422, 423, 424, 425, 426, 427, 428, 429, 430, 431, 432, 433, 434, 435, 436, 437, 438, 439, 440, 441, 442, 443, 444, 445, 446, 447, 448, 449, 450, 451, 452, 453, 454, 455, 456, 457, 458, 459, 460, 461, 462, 463, 464, 465, 466, 467, 468, 469, 470, 471, 472, 473, 474, 475, 476, 477, 478, 479, 480, 481, 482, 483, 484, 485, 486, 487, 488, 489, 490, 491, 492, 493, 494, 495, 496, 497, 498, 499, 500, 501, 502, 503, 504, 505, 506, 507, 508, 509, 510], "AcquisitionTime": ["100416.695000", "100417.305000", "100417.915000", "100418.525000", "100419.135000", "100419.745000", "100420.355000", "100420.965000", "100421.575000", "100422.185000", "100422.795000", "100423.405000", "100424.015000", "100424.625000", "100425.235000", "100425.845000", "100426.455000", "100427.065000", "100427.675000", "100428.285000", "100428.895000", "100429.505000", "100430.115000", "100430.725000", "100431.335000", "100431.945000", "100432.555000", "100433.165000", "100433.775000", "100434.385000", "100434.995000", "100435.605000", "100436.215000", "100436.825000", "100437.435000", "100438.045000", "100438.655000", "100439.265000", "100439.875000", "100440.485000", "100441.095000", "100441.705000", "100442.315000", "100442.925000", "100443.535000", "100444.145000", "100444.755000", "100445.365000", "100445.975000", "100446.585000", "100447.195000", "100447.805000", "100448.415000", "100449.025000", "100449.635000", "100450.245000", "100450.855000", "100451.465000", "100452.075000", "100452.685000", "100453.295000", "100453.905000", "100454.515000", "100455.125000", "100455.735000", "100456.345000", "100456.955000", "100457.565000", "100458.175000", "100458.785000", "100459.395000", "100500.005000", "100500.615000", "100501.225000", "100501.835000", "100502.445000", "100503.055000", "100503.665000", "100504.275000", "100504.885000", "100505.495000", "100506.105000", "100506.715000", "100507.325000", "100507.935000", "100508.545000", "100509.155000", "100509.765000", "100510.375000", "100510.985000", "100511.595000", "100512.205000", "100512.815000", "100513.425000", "100514.035000", "100514.645000", "100515.255000", "100515.865000", "100516.475000", "100517.085000", "100517.695000", "100518.305000", "100518.915000", "100519.525000", "100520.135000", "100520.745000", "100521.355000", "100521.965000", "100522.575000", "100523.185000", "100523.795000", "100524.405000", "100525.015000", "100525.625000", "100526.235000", "100526.845000", "100527.455000", "100528.065000", "100528.675000", "100529.285000", "100529.895000", "100530.505000", "100531.115000", "100531.725000", "100532.335000", "100532.945000", "100533.555000", "100534.165000", "100534.775000", "100535.385000", "100535.995000", "100536.605000", "100537.215000", "100537.825000", "100538.435000", "100539.045000", "100539.655000", "100540.265000", "100540.875000", "100541.485000", "100542.095000", "100542.705000", "100543.315000", "100543.925000", "100544.535000", "100545.145000", "100545.755000", "100546.365000", "100546.975000", "100547.585000", "100548.195000", "100548.805000", "100549.415000", "100550.025000", "100550.635000", "100551.245000", "100551.855000", "100552.465000", "100553.075000", "100553.685000", "100554.295000", "100554.905000", "100555.515000", "100556.125000", "100556.735000", "100557.345000", "100557.955000", "100558.565000", "100559.175000", "100559.785000", "100600.395000", "100601.005000", "100601.615000", "100602.225000", "100602.835000", "100603.445000", "100604.055000", "100604.665000", "100605.275000", "100605.885000", "100606.495000", "100607.105000", "100607.715000", "100608.325000", "100608.935000", "100609.545000", "100610.155000", "100610.765000", "100611.375000", "100611.985000", "100612.595000", "100613.205000", "100613.815000", "100614.425000", "100615.035000", "100615.645000", "100616.255000", "100616.865000", "100617.475000", "100618.085000", "100618.695000", "100619.305000", "100619.915000", "100620.525000", "100621.135000", "100621.745000", "100622.355000", "100622.965000", "100623.575000", "100624.185000", "100624.795000", "100625.405000", "100626.015000", "100626.625000", "100627.235000", "100627.845000", "100628.455000", "100629.065000", "100629.675000", "100630.285000", "100630.895000", "100631.505000", "100632.115000", "100632.725000", "100633.335000", "100633.945000", "100634.555000", "100635.165000", "100635.775000", "100636.385000", "100636.995000", "100637.605000", "100638.215000", "100638.825000", "100639.435000", "100640.045000", "100640.655000", "100641.265000", "100641.875000", "100642.485000", "100643.095000", "100643.705000", "100644.315000", "100644.925000", "100645.535000", "100646.145000", "100646.755000", "100647.365000", "100647.975000", "100648.585000", "100649.195000", "100649.805000", "100650.415000", "100651.025000", "100651.635000", "100652.245000", "100652.855000", "100653.465000", "100654.075000", "100654.685000", "100655.295000", "100655.905000", "100656.515000", "100657.125000", "100657.735000", "100658.345000", "100658.955000", "100659.565000", "100700.175000", "100700.785000", "100701.395000", "100702.005000", "100702.615000", "100703.225000", "100703.835000", "100704.445000", "100705.055000", "100705.665000", "100706.275000", "100706.885000", "100707.495000", "100708.105000", "100708.715000", "100709.325000", "100709.935000", "100710.545000", "100711.155000", "100711.765000", "100712.375000", "100712.985000", "100713.595000", "100714.205000", "100714.815000", "100715.425000", "100716.035000", "100716.645000", "100717.255000", "100717.865000", "100718.475000", "100719.085000", "100719.695000", "100720.305000", "100720.915000", "100721.525000", "100722.135000", "100722.745000", "100723.355000", "100723.965000", "100724.575000", "100725.185000", "100725.795000", "100726.405000", "100727.015000", "100727.625000", "100728.235000", "100728.845000", "100729.455000", "100730.065000", "100730.675000", "100731.285000", "100731.895000", "100732.505000", "100733.115000", "100733.725000", "100734.335000", "100734.945000", "100735.555000", "100736.165000", "100736.775000", "100737.385000", "100737.995000", "100738.605000", "100739.215000", "100739.825000", "100740.435000", "100741.045000", "100741.655000", "100742.265000", "100742.875000", "100743.485000", "100744.095000", "100744.705000", "100745.315000", "100745.925000", "100746.535000", "100747.145000", "100747.755000", "100748.365000", "100748.975000", "100749.585000", "100750.195000", "100750.805000", "100751.415000", "100752.025000", "100752.635000", "100753.245000", "100753.855000", "100754.465000", "100755.075000", "100755.685000", "100756.295000", "100756.905000", "100757.515000", "100758.125000", "100758.735000", "100759.345000", "100759.955000", "100800.565000", "100801.175000", "100801.785000", "100802.395000", "100803.005000", "100803.615000", "100804.225000", "100804.835000", "100805.445000", "100806.055000", "100806.665000", "100807.275000", "100807.885000", "100808.495000", "100809.105000", "100809.715000", "100810.325000", "100810.935000", "100811.545000", "100812.155000", "100812.765000", "100813.375000", "100813.985000", "100814.595000", "100815.205000", "100815.815000", "100816.425000", "100817.035000", "100817.645000", "100818.255000", "100818.865000", "100819.475000", "100820.085000", "100820.695000", "100821.305000", "100821.915000", "100822.525000", "100823.135000", "100823.745000", "100824.355000", "100824.965000", "100825.575000", "100826.185000", "100826.795000", "100827.405000", "100828.015000", "100828.625000", "100829.235000", "100829.845000", "100830.455000", "100831.065000", "100831.675000", "100832.285000", "100832.895000", "100833.505000", "100834.115000", "100834.725000", "100835.335000", "100835.945000", "100836.555000", "100837.165000", "100837.775000", "100838.385000", "100838.995000", "100839.605000", "100840.215000", "100840.825000", "100841.435000", "100842.045000", "100842.655000", "100843.265000", "100843.875000", "100844.485000", "100845.095000", "100845.705000", "100846.315000", "100846.925000", "100847.535000", "100848.145000", "100848.755000", "100849.365000", "100849.975000", "100850.585000", "100851.195000", "100851.805000", "100852.415000", "100853.025000", "100853.635000", "100854.245000", "100854.855000", "100855.465000", "100856.075000", "100856.685000", "100857.295000", "100857.905000", "100858.515000", "100859.125000", "100859.735000", "100900.345000", "100900.955000", "100901.565000", "100902.175000", "100902.785000", "100903.395000", "100904.005000", "100904.615000", "100905.225000", "100905.835000", "100906.445000", "100907.055000", "100907.665000", "100908.275000", "100908.885000", "100909.495000", "100910.105000", "100910.715000", "100911.325000", "100911.935000", "100912.545000", "100913.155000", "100913.765000", "100914.375000", "100914.985000", "100915.595000", "100916.205000", "100916.815000", "100917.425000", "100918.035000", "100918.645000", "100919.255000", "100919.865000", "100920.475000", "100921.085000", "100921.695000", "100922.305000", "100922.915000", "100923.525000", "100924.135000", "100924.745000", "100925.355000", "100925.965000", "100926.575000", "100927.185000"], "ContentTime": ["100434.438000", "100434.441000", "100434.443000", "100434.446000", "100434.448000", "100434.450000", "100434.453000", "100434.455000", "100434.458000", "100434.460000", "100434.463000", "100434.465000", "100434.468000", "100434.470000", "100434.479000", "100434.481000", "100434.484000", "100434.486000", "100434.488000", "100434.491000", "100434.493000", "100434.496000", "100434.498000", "100434.500000", "100434.503000", "100434.505000", "100434.507000", "100434.510000", "100454.433000", "100454.436000", "100454.442000", "100454.445000", "100454.447000", "100454.450000", "100454.452000", "100454.455000", "100454.457000", "100454.459000", "100454.462000", "100454.464000", "100454.467000", "100454.469000", "100454.472000", "100454.474000", "100454.476000", "100454.479000", "100454.481000", "100454.483000", "100454.486000", "100454.495000", "100454.497000", "100454.499000", "100454.502000", "100454.504000", "100454.506000", "100454.509000", "100454.511000", "100454.513000", "100454.516000", "100454.518000", "100454.521000", "100514.433000", "100514.436000", "100514.438000", "100514.441000", "100514.443000", "100514.446000", "100514.448000", "100514.450000", "100514.453000", "100514.455000", "100514.457000", "100514.460000", "100514.462000", "100514.464000", "100514.467000", "100514.469000", "100514.472000", "100514.474000", "100514.476000", "100514.479000", "100514.481000", "100514.483000", "100514.486000", "100514.488000", "100514.490000", "100514.493000", "100514.495000", "100514.497000", "100514.500000", "100514.502000", "100514.505000", "100514.507000", "100514.509000", "100534.433000", "100534.436000", "100534.438000", "100534.441000", "100534.444000", "100534.446000", "100534.449000", "100534.451000", "100534.454000", "100534.456000", "100534.459000", "100534.461000", "100534.464000", "100534.467000", "100534.469000", "100534.472000", "100534.474000", "100534.477000", "100534.479000", "100534.482000", "100534.484000", "100534.487000", "100534.490000", "100534.492000", "100534.495000", "100534.497000", "100534.500000", "100534.502000", "100534.505000", "100534.508000", "100534.510000", "100534.513000", "100534.515000", "100554.433000", "100554.436000", "100554.439000", "100554.441000", "100554.443000", "100554.446000", "100554.448000", "100554.450000", "100554.453000", "100554.455000", "100554.458000", "100554.460000", "100554.463000", "100554.465000", "100554.467000", "100554.470000", "100554.472000", "100554.475000", "100554.477000", "100554.479000", "100554.482000", "100554.484000", "100554.487000", "100554.489000", "100554.491000", "100554.503000", "100554.506000", "100554.508000", "100554.511000", "100554.513000", "100554.515000", "100554.518000", "100614.433000", "100614.436000", "100614.438000", "100614.440000", "100614.443000", "100614.445000", "100614.448000", "100614.450000", "100614.452000", "100614.455000", "100614.457000", "100614.459000", "100614.462000", "100614.464000", "100614.466000", "100614.469000", "100614.471000", "100614.474000", "100614.476000", "100614.478000", "100614.481000", "100614.483000", "100614.485000", "100614.488000", "100614.490000", "100614.492000", "100614.495000", "100614.497000", "100614.499000", "100614.502000", "100614.504000", "100614.506000", "100614.509000", "100634.433000", "100634.436000", "100634.439000", "100634.441000", "100634.453000", "100634.455000", "100634.458000", "100634.460000", "100634.463000", "100634.465000", "100634.467000", "100634.470000", "100634.472000", "100634.475000", "100634.477000", "100634.480000", "100634.482000", "100634.484000", "100634.487000", "100634.489000", "100634.492000", "100634.494000", "100634.497000", "100634.499000", "100634.501000", "100634.504000", "100634.506000", "100634.508000", "100634.511000", "100634.513000", "100634.516000", "100634.518000", "100634.521000", "100654.433000", "100654.436000", "100654.438000", "100654.441000", "100654.443000", "100654.445000", "100654.448000", "100654.450000", "100654.453000", "100654.455000", "100654.458000", "100654.460000", "100654.463000", "100654.465000", "100654.468000", "100654.470000", "100654.473000", "100654.475000", "100654.477000", "100654.480000", "100654.482000", "100654.484000", "100654.487000", "100654.489000", "100654.492000", "100654.494000", "100654.496000", "100654.499000", "100654.501000", "100654.503000", "100654.506000", "100654.508000", "100654.511000", "100714.433000", "100714.436000", "100714.439000", "100714.441000", "100714.444000", "100714.446000", "100714.449000", "100714.451000", "100714.453000", "100714.456000", "100714.458000", "100714.460000", "100714.463000", "100714.465000", "100714.467000", "100714.470000", "100714.472000", "100714.475000", "100714.477000", "100714.479000", "100714.482000", "100714.484000", "100714.487000", "100714.492000", "100714.495000", "100714.497000", "100714.499000", "100714.502000", "100714.504000", "100714.506000", "100714.509000", "100714.511000", "100734.433000", "100734.436000", "100734.438000", "100734.441000", "100734.443000", "100734.445000", "100734.448000", "100734.450000", "100734.453000", "100734.455000", "100734.457000", "100734.460000", "100734.462000", "100734.465000", "100734.467000", "100734.469000", "100734.472000", "100734.474000", "100734.477000", "100734.479000", "100734.482000", "100734.484000", "100734.486000", "100734.489000", "100734.491000", "100734.494000", "100734.496000", "100734.499000", "100734.501000", "100734.503000", "100734.506000", "100734.508000", "100734.511000", "100754.433000", "100754.436000", "100754.438000", "100754.440000", "100754.443000", "100754.445000", "100754.447000", "100754.450000", "100754.452000", "100754.455000", "100754.457000", "100754.459000", "100754.469000", "100754.471000", "100754.473000", "100754.476000", "100754.478000", "100754.481000", "100754.483000", "100754.485000", "100754.488000", "100754.490000", "100754.493000", "100754.495000", "100754.498000", "100754.500000", "100754.503000", "100754.505000", "100754.508000", "100754.510000", "100754.512000", "100754.515000", "100754.517000", "100814.433000", "100814.436000", "100814.438000", "100814.440000", "100814.443000", "100814.445000", "100814.447000", "100814.450000", "100814.452000", "100814.455000", "100814.457000", "100814.460000", "100814.462000", "100814.464000", "100814.467000", "100814.469000", "100814.471000", "100814.474000", "100814.476000", "100814.479000", "100814.481000", "100814.484000", "100814.486000", "100814.488000", "100814.491000", "100814.493000", "100814.496000", "100814.498000", "100814.500000", "100814.503000", "100814.505000", "100814.508000", "100814.510000", "100834.433000", "100834.436000", "100834.438000", "100834.441000", "100834.443000", "100834.446000", "100834.448000", "100834.450000", "100834.453000", "100834.455000", "100834.458000", "100834.460000", "100834.462000", "100834.465000", "100834.467000", "100834.470000", "100834.472000", "100834.474000", "100834.477000", "100834.479000", "100834.482000", "100834.485000", "100834.487000", "100834.489000", "100834.492000", "100834.494000", "100834.497000", "100834.499000", "100834.502000", "100834.504000", "100834.506000", "100834.509000", "100834.511000", "100854.433000", "100854.436000", "100854.438000", "100854.441000", "100854.443000", "100854.446000", "100854.448000", "100854.450000", "100854.453000", "100854.455000", "100854.458000", "100854.460000", "100854.462000", "100854.465000", "100854.467000", "100854.470000", "100854.472000", "100854.474000", "100854.477000", "100854.479000", "100854.482000", "100854.484000", "100854.486000", "100854.489000", "100854.491000", "100854.494000", "100854.496000", "100854.499000", "100854.501000", "100854.504000", "100854.506000", "100854.509000", "100914.433000", "100914.436000", "100914.438000", "100914.441000", "100914.443000", "100914.445000", "100914.448000", "100914.450000", "100914.453000", "100914.455000", "100914.457000", "100914.460000", "100914.463000", "100914.466000", "100914.468000", "100914.470000", "100914.473000", "100914.475000", "100914.478000", "100914.480000", "100914.483000", "100914.485000", "100914.487000", "100914.490000", "100914.492000", "100914.495000", "100914.497000", "100914.499000", "100914.502000", "100914.504000", "100914.507000", "100914.509000", "100914.512000", "100928.008000", "100928.012000", "100928.015000", "100928.017000", "100928.020000", "100928.022000", "100928.025000", "100928.028000", "100928.031000", "100928.033000", "100928.036000", "100928.038000", "100928.041000", "100928.043000", "100928.045000", "100928.053000", "100928.056000", "100928.058000", "100928.060000", "100928.063000", "100928.065000", "100928.068000", "100928.070000"], "InstanceCreationTime": ["100434.438000", "100434.441000", "100434.443000", "100434.446000", "100434.448000", "100434.450000", "100434.453000", "100434.455000", "100434.458000", "100434.460000", "100434.463000", "100434.465000", "100434.468000", "100434.470000", "100434.479000", "100434.481000", "100434.484000", "100434.486000", "100434.488000", "100434.491000", "100434.493000", "100434.496000", "100434.498000", "100434.500000", "100434.503000", "100434.505000", "100434.507000", "100434.510000", "100454.433000", "100454.436000", "100454.442000", "100454.445000", "100454.447000", "100454.450000", "100454.452000", "100454.455000", "100454.457000", "100454.459000", "100454.462000", "100454.464000", "100454.467000", "100454.469000", "100454.472000", "100454.474000", "100454.476000", "100454.479000", "100454.481000", "100454.483000", "100454.486000", "100454.495000", "100454.497000", "100454.499000", "100454.502000", "100454.504000", "100454.506000", "100454.509000", "100454.511000", "100454.513000", "100454.516000", "100454.518000", "100454.521000", "100514.433000", "100514.436000", "100514.438000", "100514.441000", "100514.443000", "100514.446000", "100514.448000", "100514.450000", "100514.453000", "100514.455000", "100514.457000", "100514.460000", "100514.462000", "100514.464000", "100514.467000", "100514.469000", "100514.472000", "100514.474000", "100514.476000", "100514.479000", "100514.481000", "100514.483000", "100514.486000", "100514.488000", "100514.490000", "100514.493000", "100514.495000", "100514.497000", "100514.500000", "100514.502000", "100514.505000", "100514.507000", "100514.509000", "100534.433000", "100534.436000", "100534.438000", "100534.441000", "100534.444000", "100534.446000", "100534.449000", "100534.451000", "100534.454000", "100534.456000", "100534.459000", "100534.461000", "100534.464000", "100534.467000", "100534.469000", "100534.472000", "100534.474000", "100534.477000", "100534.479000", "100534.482000", "100534.484000", "100534.487000", "100534.490000", "100534.492000", "100534.495000", "100534.497000", "100534.500000", "100534.502000", "100534.505000", "100534.508000", "100534.510000", "100534.513000", "100534.515000", "100554.433000", "100554.436000", "100554.439000", "100554.441000", "100554.443000", "100554.446000", "100554.448000", "100554.450000", "100554.453000", "100554.455000", "100554.458000", "100554.460000", "100554.463000", "100554.465000", "100554.467000", "100554.470000", "100554.472000", "100554.475000", "100554.477000", "100554.479000", "100554.482000", "100554.484000", "100554.487000", "100554.489000", "100554.491000", "100554.503000", "100554.506000", "100554.508000", "100554.511000", "100554.513000", "100554.515000", "100554.518000", "100614.433000", "100614.436000", "100614.438000", "100614.440000", "100614.443000", "100614.445000", "100614.448000", "100614.450000", "100614.452000", "100614.455000", "100614.457000", "100614.459000", "100614.462000", "100614.464000", "100614.466000", "100614.469000", "100614.471000", "100614.474000", "100614.476000", "100614.478000", "100614.481000", "100614.483000", "100614.485000", "100614.488000", "100614.490000", "100614.492000", "100614.495000", "100614.497000", "100614.499000", "100614.502000", "100614.504000", "100614.506000", "100614.509000", "100634.433000", "100634.436000", "100634.439000", "100634.441000", "100634.453000", "100634.455000", "100634.458000", "100634.460000", "100634.463000", "100634.465000", "100634.467000", "100634.470000", "100634.472000", "100634.475000", "100634.477000", "100634.480000", "100634.482000", "100634.484000", "100634.487000", "100634.489000", "100634.492000", "100634.494000", "100634.497000", "100634.499000", "100634.501000", "100634.504000", "100634.506000", "100634.508000", "100634.511000", "100634.513000", "100634.516000", "100634.518000", "100634.521000", "100654.433000", "100654.436000", "100654.438000", "100654.441000", "100654.443000", "100654.445000", "100654.448000", "100654.450000", "100654.453000", "100654.455000", "100654.458000", "100654.460000", "100654.463000", "100654.465000", "100654.468000", "100654.470000", "100654.473000", "100654.475000", "100654.477000", "100654.480000", "100654.482000", "100654.484000", "100654.487000", "100654.489000", "100654.492000", "100654.494000", "100654.496000", "100654.499000", "100654.501000", "100654.503000", "100654.506000", "100654.508000", "100654.511000", "100714.433000", "100714.436000", "100714.439000", "100714.441000", "100714.444000", "100714.446000", "100714.449000", "100714.451000", "100714.453000", "100714.456000", "100714.458000", "100714.460000", "100714.463000", "100714.465000", "100714.467000", "100714.470000", "100714.472000", "100714.475000", "100714.477000", "100714.479000", "100714.482000", "100714.484000", "100714.487000", "100714.492000", "100714.495000", "100714.497000", "100714.499000", "100714.502000", "100714.504000", "100714.506000", "100714.509000", "100714.511000", "100734.433000", "100734.436000", "100734.438000", "100734.441000", "100734.443000", "100734.445000", "100734.448000", "100734.450000", "100734.453000", "100734.455000", "100734.457000", "100734.460000", "100734.462000", "100734.465000", "100734.467000", "100734.469000", "100734.472000", "100734.474000", "100734.477000", "100734.479000", "100734.482000", "100734.484000", "100734.486000", "100734.489000", "100734.491000", "100734.494000", "100734.496000", "100734.499000", "100734.501000", "100734.503000", "10073