{"AcquisitionMatrixPE": 64, "AcquisitionNumber": 1, "AcquisitionTime": "10:16:21.712500", "BandwidthPerPixelPhaseEncode": 28.935, "BaseResolution": 64, "BodyPartExamined": "BRAIN", "CoilCombinationMethod": "Sum of Squares", "ConsistencyInfo": "N4_VE11E_LATEST_20181129", "ConversionSoftware": "dcm2niix", "ConversionSoftwareVersion": "v1.0.20230411", "DerivedVendorReportedEchoSpacing": 0.000540003, "DeviceSerialNumber": "166182", "DwellTime": 3.4e-06, "EchoTime": 0.032, "EchoTrainLength": 64, "EffectiveEchoSpacing": 0.000540003, "FlipAngle": 40, "HeudiconvVersion": "0.13.1", "ImageOrientationPatientDICOM": [0.996195, -0.0854611, -0.0170709, 0.0784023, 0.964378, -0.252641], "ImageOrientationText": "Tra>Cor(-14.5)>Sag(-2.2)", "ImageType": ["ORIGINAL", "PRIMARY", "M", "ND", "NORM", "MOSAIC"], "ImagingFrequency": 123.256357, "InPlanePhaseEncodingDirectionDICOM": "COL", "InstitutionAddress": "PEARSE STREET .,City,District,IE,D2", "InstitutionName": "TCIN", "InstitutionalDepartmentName": "MRI", "MRAcquisitionType": "2D", "MagneticFieldStrength": 3, "Manufacturer": "Siemens", "ManufacturersModelName": "Prisma", "Modality": "MR", "MultibandAccelerationFactor": 4, "NonlinearGradientCorrection": false, "PartialFourier": 1, "PatientPosition": "HFS", "PercentPhaseFOV": 100, "PercentSampling": 100, "PhaseEncodingDirection": "j-", "PhaseEncodingSteps": 64, "PhaseResolution": 1, "PixelBandwidth": 2300, "ProcedureStepDescription": "Rhodri^Head BOLD", "ProtocolName": "cmrr_mbep2d_Pictures_AP_RDS", "PulseSequenceDetails": "%SiemensSeq%\\ep2d_bold", "ReceiveCoilActiveElements": "HC2,4,6,7", "ReceiveCoilName": "HeadNeck_64", "ReconMatrixPE": 64, "RefLinesPE": 12, "RepetitionTime": 0.61, "SAR": 0.150388, "ScanOptions": "FS", "ScanningSequence": "EP", "SequenceName": "*epfid2d1_64", "SequenceVariant": "SK", "SeriesDescription": "cmrr_mbep2d_Pictures_AP_RDS", "SeriesNumber": 10, "ShimSetting": [-3599, -7400, 3933, 652, -76, 468, 48, 85], "SliceThickness": 3, "SliceTiming": [0.2625, 0, 0.33, 0.0675, 0.395, 0.1325, 0.46, 0.1975, 0.525, 0.2625, 0, 0.33, 0.0675, 0.395, 0.1325, 0.46, 0.1975, 0.525, 0.2625, 0, 0.33, 0.0675, 0.395, 0.1325, 0.46, 0.1975, 0.525, 0.2625, 0, 0.33, 0.0675, 0.395, 0.1325, 0.46, 0.1975, 0.525], "SoftwareVersions": "syngo MR E11", "SpacingBetweenSlices": 3.3, "StationName": "AWP166182", "TaskName": "pictures", "TotalReadoutTime": 0.0340202, "TxRefAmp": 234.869, "dcmmeta_affine": [[-2.9885857105255127, 0.2352069914340973, -0.12557758390903473, 92.65424346923828], [0.25638332962989807, 2.8931350708007812, -0.826126217842102, -92.03399658203125], [-0.05121280997991562, 0.7579227089881897, 3.192451238632202, -104.26513671875], [0.0, 0.0, 0.0, 1.0]], "dcmmeta_reorient_transform": [[0.0, -1.0, 0.0, 63.0], [1.0, 0.0, 0.0, 0.0], [0.0, 0.0, 1.0, 0.0], [0.0, 0.0, 0.0, 1.0]], "dcmmeta_shape": [64, 64, 36, 510], "dcmmeta_slice_dim": 2, "dcmmeta_version": 0.6, "global": {"const": {"AcquisitionMatrix": [64, 0, 0, 64], "AngioFlag": "N", "BitsAllocated": 16, "BitsStored": 12, "BodyPartExamined": "BRAIN", "Columns": 384, "EchoNumbers": 1, "EchoTime": 32.0, "EchoTrainLength": 64, "FlipAngle": 40.0, "HighBit": 11, "ImageOrientationPatient": [0.99619525291124, -0.0854611093741, -0.0170709361681, 0.07840232968913, 0.9643783720323, -0.2526409116823], "ImagePositionPatient": [-623.27912018691, -512.11380140575, 72.945683907715], "ImageType": ["ORIGINAL", "PRIMARY", "M", "ND", "NORM", "MOSAIC"], "ImagedNucleus": "1H", "ImagingFrequency": 123.256357, "InPlanePhaseEncodingDirection": "COL", "MRAcquisitionType": "2D", "MagneticFieldStrength": 3.0, "Manufacturer": "SIEMENS", "ManufacturerModelName": "Prisma", "Modality": "MR", "NumberOfAverages": 1.0, "NumberOfPhaseEncodingSteps": 64, "PercentPhaseFieldOfView": 100.0, "PercentSampling": 100.0, "PerformedProcedureStepStartTime": "095701.545000", "PhotometricInterpretation": "MONOCHROME2", "PixelBandwidth": 2300.0, "PixelRepresentation": 0, "PixelSpacing": [3.0, 3.0], "ProtocolName": "cmrr_mbep2d_Pictures_AP_RDS", "RepetitionTime": 610.0, "Rows": 384, "SAR": 0.15038773659906, "SamplesPerPixel": 1, "ScanOptions": "FS", "ScanningSequence": "EP", "SequenceName": "*epfid2d1_64", "SequenceVariant": "SK", "SeriesDescription": "cmrr_mbep2d_Pictures_AP_RDS", "SeriesNumber": 10, "SeriesTime": "101634.522000", "SliceLocation": -81.353022158395, "SliceThickness": 3.0, "SmallestImagePixelValue": 0, "SoftwareVersions": "syngo MR E11", "SpacingBetweenSlices": 3.2999999423404, "SpecificCharacterSet": "ISO_IR 100", "StudyID": "1", "StudyTime": "095701.301000", "TransmitCoilName": "Body", "VariableFlipAngleFlag": "N", "WindowCenterWidthExplanation": "Algo1"}, "slices": {}}, "time": {"samples": {"AcquisitionNumber": [1, 2, 3, 4, 5, 6, 7, 8, 9, 10, 11, 12, 13, 14, 15, 16, 17, 18, 19, 20, 21, 22, 23, 24, 25, 26, 27, 28, 29, 30, 31, 32, 33, 34, 35, 36, 37, 38, 39, 40, 41, 42, 43, 44, 45, 46, 47, 48, 49, 50, 51, 52, 53, 54, 55, 56, 57, 58, 59, 60, 61, 62, 63, 64, 65, 66, 67, 68, 69, 70, 71, 72, 73, 74, 75, 76, 77, 78, 79, 80, 81, 82, 83, 84, 85, 86, 87, 88, 89, 90, 91, 92, 93, 94, 95, 96, 97, 98, 99, 100, 101, 102, 103, 104, 105, 106, 107, 108, 109, 110, 111, 112, 113, 114, 115, 116, 117, 118, 119, 120, 121, 122, 123, 124, 125, 126, 127, 128, 129, 130, 131, 132, 133, 134, 135, 136, 137, 138, 139, 140, 141, 142, 143, 144, 145, 146, 147, 148, 149, 150, 151, 152, 153, 154, 155, 156, 157, 158, 159, 160, 161, 162, 163, 164, 165, 166, 167, 168, 169, 170, 171, 172, 173, 174, 175, 176, 177, 178, 179, 180, 181, 182, 183, 184, 185, 186, 187, 188, 189, 190, 191, 192, 193, 194, 195, 196, 197, 198, 199, 200, 201, 202, 203, 204, 205, 206, 207, 208, 209, 210, 211, 212, 213, 214, 215, 216, 217, 218, 219, 220, 221, 222, 223, 224, 225, 226, 227, 228, 229, 230, 231, 232, 233, 234, 235, 236, 237, 238, 239, 240, 241, 242, 243, 244, 245, 246, 247, 248, 249, 250, 251, 252, 253, 254, 255, 256, 257, 258, 259, 260, 261, 262, 263, 264, 265, 266, 267, 268, 269, 270, 271, 272, 273, 274, 275, 276, 277, 278, 279, 280, 281, 282, 283, 284, 285, 286, 287, 288, 289, 290, 291, 292, 293, 294, 295, 296, 297, 298, 299, 300, 301, 302, 303, 304, 305, 306, 307, 308, 309, 310, 311, 312, 313, 314, 315, 316, 317, 318, 319, 320, 321, 322, 323, 324, 325, 326, 327, 328, 329, 330, 331, 332, 333, 334, 335, 336, 337, 338, 339, 340, 341, 342, 343, 344, 345, 346, 347, 348, 349, 350, 351, 352, 353, 354, 355, 356, 357, 358, 359, 360, 361, 362, 363, 364, 365, 366, 367, 368, 369, 370, 371, 372, 373, 374, 375, 376, 377, 378, 379, 380, 381, 382, 383, 384, 385, 386, 387, 388, 389, 390, 391, 392, 393, 394, 395, 396, 397, 398, 399, 400, 401, 402, 403, 404, 405, 406, 407, 408, 409, 410, 411, 412, 413, 414, 415, 416, 417, 418, 419, 420, 421, 422, 423, 424, 425, 426, 427, 428, 429, 430, 431, 432, 433, 434, 435, 436, 437, 438, 439, 440, 441, 442, 443, 444, 445, 446, 447, 448, 449, 450, 451, 452, 453, 454, 455, 456, 457, 458, 459, 460, 461, 462, 463, 464, 465, 466, 467, 468, 469, 470, 471, 472, 473, 474, 475, 476, 477, 478, 479, 480, 481, 482, 483, 484, 485, 486, 487, 488, 489, 490, 491, 492, 493, 494, 495, 496, 497, 498, 499, 500, 501, 502, 503, 504, 505, 506, 507, 508, 509, 510], "AcquisitionTime": ["101621.712500", "101622.322500", "101622.932500", "101623.542500", "101624.152500", "101624.762500", "101625.372500", "101625.982500", "101626.592500", "101627.202500", "101627.812500", "101628.422500", "101629.032500", "101629.642500", "101630.252500", "101630.862500", "101631.472500", "101632.082500", "101632.692500", "101633.302500", "101633.912500", "101634.522500", "101635.132500", "101635.742500", "101636.352500", "101636.962500", "101637.572500", "101638.182500", "101638.792500", "101639.402500", "101640.012500", "101640.622500", "101641.232500", "101641.842500", "101642.452500", "101643.062500", "101643.672500", "101644.282500", "101644.892500", "101645.502500", "101646.112500", "101646.722500", "101647.332500", "101647.942500", "101648.552500", "101649.162500", "101649.772500", "101650.382500", "101650.992500", "101651.602500", "101652.212500", "101652.822500", "101653.432500", "101654.042500", "101654.652500", "101655.262500", "101655.872500", "101656.482500", "101657.092500", "101657.702500", "101658.312500", "101658.922500", "101659.532500", "101700.142500", "101700.752500", "101701.362500", "101701.972500", "101702.582500", "101703.192500", "101703.802500", "101704.412500", "101705.022500", "101705.632500", "101706.242500", "101706.852500", "101707.462500", "101708.072500", "101708.682500", "101709.292500", "101709.902500", "101710.512500", "101711.122500", "101711.732500", "101712.342500", "101712.952500", "101713.562500", "101714.172500", "101714.782500", "101715.392500", "101716.002500", "101716.612500", "101717.222500", "101717.832500", "101718.442500", "101719.052500", "101719.662500", "101720.272500", "101720.882500", "101721.492500", "101722.102500", "101722.712500", "101723.322500", "101723.932500", "101724.542500", "101725.152500", "101725.762500", "101726.372500", "101726.982500", "101727.592500", "101728.202500", "101728.812500", "101729.422500", "101730.032500", "101730.642500", "101731.252500", "101731.862500", "101732.472500", "101733.082500", "101733.692500", "101734.302500", "101734.912500", "101735.522500", "101736.132500", "101736.742500", "101737.352500", "101737.962500", "101738.572500", "101739.182500", "101739.792500", "101740.402500", "101741.012500", "101741.622500", "101742.232500", "101742.842500", "101743.452500", "101744.062500", "101744.672500", "101745.282500", "101745.892500", "101746.502500", "101747.112500", "101747.722500", "101748.332500", "101748.942500", "101749.552500", "101750.162500", "101750.772500", "101751.382500", "101751.992500", "101752.602500", "101753.212500", "101753.822500", "101754.432500", "101755.042500", "101755.652500", "101756.262500", "101756.872500", "101757.482500", "101758.092500", "101758.702500", "101759.312500", "101759.922500", "101800.532500", "101801.142500", "101801.752500", "101802.362500", "101802.972500", "101803.582500", "101804.192500", "101804.802500", "101805.412500", "101806.022500", "101806.632500", "101807.242500", "101807.852500", "101808.462500", "101809.072500", "101809.682500", "101810.292500", "101810.902500", "101811.512500", "101812.122500", "101812.732500", "101813.342500", "101813.952500", "101814.562500", "101815.172500", "101815.782500", "101816.392500", "101817.002500", "101817.612500", "101818.222500", "101818.832500", "101819.442500", "101820.052500", "101820.662500", "101821.272500", "101821.882500", "101822.492500", "101823.102500", "101823.712500", "101824.322500", "101824.932500", "101825.542500", "101826.152500", "101826.762500", "101827.372500", "101827.982500", "101828.592500", "101829.202500", "101829.812500", "101830.422500", "101831.032500", "101831.642500", "101832.252500", "101832.862500", "101833.472500", "101834.082500", "101834.692500", "101835.302500", "101835.912500", "101836.522500", "101837.132500", "101837.742500", "101838.352500", "101838.962500", "101839.572500", "101840.182500", "101840.792500", "101841.402500", "101842.012500", "101842.622500", "101843.232500", "101843.842500", "101844.452500", "101845.062500", "101845.672500", "101846.282500", "101846.892500", "101847.502500", "101848.112500", "101848.722500", "101849.332500", "101849.942500", "101850.552500", "101851.162500", "101851.772500", "101852.382500", "101852.992500", "101853.602500", "101854.212500", "101854.822500", "101855.432500", "101856.042500", "101856.652500", "101857.262500", "101857.872500", "101858.482500", "101859.092500", "101859.702500", "101900.312500", "101900.922500", "101901.532500", "101902.142500", "101902.752500", "101903.362500", "101903.972500", "101904.582500", "101905.192500", "101905.802500", "101906.412500", "101907.022500", "101907.632500", "101908.242500", "101908.852500", "101909.462500", "101910.072500", "101910.682500", "101911.292500", "101911.902500", "101912.512500", "101913.122500", "101913.732500", "101914.342500", "101914.952500", "101915.562500", "101916.172500", "101916.782500", "101917.392500", "101918.002500", "101918.612500", "101919.222500", "101919.832500", "101920.442500", "101921.052500", "101921.662500", "101922.272500", "101922.882500", "101923.492500", "101924.102500", "101924.712500", "101925.322500", "101925.932500", "101926.542500", "101927.152500", "101927.762500", "101928.372500", "101928.982500", "101929.592500", "101930.202500", "101930.812500", "101931.422500", "101932.032500", "101932.642500", "101933.252500", "101933.862500", "101934.472500", "101935.082500", "101935.692500", "101936.302500", "101936.912500", "101937.522500", "101938.132500", "101938.742500", "101939.352500", "101939.962500", "101940.572500", "101941.182500", "101941.792500", "101942.402500", "101943.012500", "101943.622500", "101944.232500", "101944.842500", "101945.452500", "101946.062500", "101946.672500", "101947.282500", "101947.892500", "101948.502500", "101949.112500", "101949.722500", "101950.332500", "101950.942500", "101951.552500", "101952.162500", "101952.772500", "101953.382500", "101953.992500", "101954.602500", "101955.212500", "101955.822500", "101956.432500", "101957.042500", "101957.652500", "101958.262500", "101958.872500", "101959.482500", "102000.092500", "102000.702500", "102001.312500", "102001.922500", "102002.532500", "102003.142500", "102003.752500", "102004.362500", "102004.972500", "102005.582500", "102006.192500", "102006.802500", "102007.412500", "102008.022500", "102008.632500", "102009.242500", "102009.852500", "102010.462500", "102011.072500", "102011.682500", "102012.292500", "102012.902500", "102013.512500", "102014.122500", "102014.732500", "102015.342500", "102015.952500", "102016.562500", "102017.172500", "102017.782500", "102018.392500", "102019.002500", "102019.612500", "102020.222500", "102020.832500", "102021.442500", "102022.052500", "102022.662500", "102023.272500", "102023.882500", "102024.492500", "102025.102500", "102025.712500", "102026.322500", "102026.932500", "102027.542500", "102028.152500", "102028.762500", "102029.372500", "102029.982500", "102030.592500", "102031.202500", "102031.812500", "102032.422500", "102033.032500", "102033.642500", "102034.252500", "102034.862500", "102035.472500", "102036.082500", "102036.692500", "102037.302500", "102037.912500", "102038.522500", "102039.132500", "102039.742500", "102040.352500", "102040.962500", "102041.572500", "102042.182500", "102042.792500", "102043.402500", "102044.012500", "102044.622500", "102045.232500", "102045.842500", "102046.452500", "102047.062500", "102047.672500", "102048.282500", "102048.892500", "102049.502500", "102050.112500", "102050.722500", "102051.332500", "102051.942500", "102052.552500", "102053.162500", "102053.772500", "102054.382500", "102054.992500", "102055.602500", "102056.212500", "102056.822500", "102057.432500", "102058.042500", "102058.652500", "102059.262500", "102059.872500", "102100.482500", "102101.092500", "102101.702500", "102102.312500", "102102.922500", "102103.532500", "102104.142500", "102104.752500", "102105.362500", "102105.972500", "102106.582500", "102107.192500", "102107.802500", "102108.412500", "102109.022500", "102109.632500", "102110.242500", "102110.852500", "102111.462500", "102112.072500", "102112.682500", "102113.292500", "102113.902500", "102114.512500", "102115.122500", "102115.732500", "102116.342500", "102116.952500", "102117.562500", "102118.172500", "102118.782500", "102119.392500", "102120.002500", "102120.612500", "102121.222500", "102121.832500", "102122.442500", "102123.052500", "102123.662500", "102124.272500", "102124.882500", "102125.492500", "102126.102500", "102126.712500", "102127.322500", "102127.932500", "102128.542500", "102129.152500", "102129.762500", "102130.372500", "102130.982500", "102131.592500", "102132.202500"], "ContentTime": ["101634.527000", "101634.530000", "101634.532000", "101634.535000", "101634.537000", "101634.543000", "101634.545000", "101634.548000", "101634.550000", "101634.552000", "101634.555000", "101634.557000", "101634.559000", "101634.562000", "101634.564000", "101634.566000", "101634.569000", "101634.571000", "101634.574000", "101634.576000", "101654.521000", "101654.524000", "101654.526000", "101654.531000", "101654.534000", "101654.536000", "101654.539000", "101654.542000", "101654.544000", "101654.547000", "101654.549000", "101654.551000", "101654.554000", "101654.556000", "101654.559000", "101654.561000", "101654.564000", "101654.567000", "101654.569000", "101654.572000", "101654.574000", "101654.577000", "101654.579000", "101654.581000", "101654.584000", "101654.587000", "101654.589000", "101654.592000", "101654.594000", "101654.604000", "101654.606000", "101654.609000", "101654.611000", "101714.521000", "101714.524000", "101714.526000", "101714.529000", "101714.531000", "101714.534000", "101714.536000", "101714.538000", "101714.541000", "101714.543000", "101714.545000", "101714.548000", "101714.550000", "101714.553000", "101714.555000", "101714.557000", "101714.560000", "101714.562000", "101714.565000", "101714.567000", "101714.569000", "101714.572000", "101714.574000", "101714.576000", "101714.579000", "101714.581000", "101714.584000", "101714.586000", "101714.589000", "101714.591000", "101714.593000", "101714.596000", "101714.598000", "101734.521000", "101734.524000", "101734.526000", "101734.529000", "101734.532000", "101734.534000", "101734.536000", "101734.539000", "101734.541000", "101734.544000", "101734.546000", "101734.548000", "101734.551000", "101734.553000", "101734.556000", "101734.558000", "101734.560000", "101734.563000", "101734.565000", "101734.567000", "101734.570000", "101734.572000", "101734.574000", "101734.577000", "101734.579000", "101734.582000", "101734.584000", "101734.587000", "101734.589000", "101734.592000", "101734.594000", "101734.596000", "101734.599000", "101754.521000", "101754.524000", "101754.526000", "101754.528000", "101754.531000", "101754.533000", "101754.536000", "101754.538000", "101754.541000", "101754.543000", "101754.545000", "101754.548000", "101754.550000", "101754.552000", "101754.555000", "101754.557000", "101754.560000", "101754.562000", "101754.565000", "101754.567000", "101754.569000", "101754.572000", "101754.574000", "101754.577000", "101754.579000", "101754.581000", "101754.584000", "101754.586000", "101754.596000", "101754.598000", "101754.601000", "101754.603000", "101814.521000", "101814.524000", "101814.526000", "101814.529000", "101814.531000", "101814.533000", "101814.549000", "101814.551000", "101814.554000", "101814.556000", "101814.558000", "101814.561000", "101814.563000", "101814.567000", "101814.570000", "101814.572000", "101814.575000", "101814.577000", "101814.579000", "101814.582000", "101814.584000", "101814.587000", "101814.589000", "101814.591000", "101814.594000", "101814.596000", "101814.599000", "101814.601000", "101814.604000", "101814.606000", "101814.608000", "101814.611000", "101814.613000", "101834.521000", "101834.529000", "101834.531000", "101834.533000", "101834.536000", "101834.538000", "101834.540000", "101834.543000", "101834.545000", "101834.548000", "101834.550000", "101834.552000", "101834.555000", "101834.557000", "101834.560000", "101834.562000", "101834.565000", "101834.567000", "101834.569000", "101834.572000", "101834.574000", "101834.576000", "101834.579000", "101834.581000", "101834.584000", "101834.586000", "101834.588000", "101834.591000", "101834.593000", "101834.596000", "101834.598000", "101834.601000", "101834.603000", "101854.521000", "101854.525000", "101854.527000", "101854.529000", "101854.532000", "101854.534000", "101854.536000", "101854.539000", "101854.541000", "101854.544000", "101854.546000", "101854.548000", "101854.551000", "101854.553000", "101854.556000", "101854.558000", "101854.560000", "101854.563000", "101854.565000", "101854.568000", "101854.570000", "101854.573000", "101854.575000", "101854.577000", "101854.580000", "101854.582000", "101854.584000", "101854.587000", "101854.589000", "101854.592000", "101854.594000", "101854.596000", "101854.599000", "101914.521000", "101914.524000", "101914.526000", "101914.529000", "101914.531000", "101914.534000", "101914.536000", "101914.538000", "101914.541000", "101914.543000", "101914.545000", "101914.548000", "101914.550000", "101914.552000", "101914.555000", "101914.557000", "101914.559000", "101914.562000", "101914.564000", "101914.566000", "101914.569000", "101914.571000", "101914.574000", "101914.576000", "101914.579000", "101914.581000", "101914.583000", "101914.586000", "101914.588000", "101914.590000", "101914.593000", "101914.595000", "101914.597000", "101934.521000", "101934.524000", "101934.526000", "101934.529000", "101934.531000", "101934.534000", "101934.536000", "101934.539000", "101934.541000", "101934.543000", "101934.546000", "101934.548000", "101934.551000", "101934.553000", "101934.556000", "101934.558000", "101934.560000", "101934.563000", "101934.565000", "101934.567000", "101934.570000", "101934.572000", "101934.575000", "101934.577000", "101934.579000", "101934.582000", "101934.584000", "101934.586000", "101934.589000", "101934.591000", "101934.594000", "101934.596000", "101954.521000", "101954.524000", "101954.526000", "101954.529000", "101954.531000", "101954.534000", "101954.536000", "101954.538000", "101954.541000", "101954.543000", "101954.545000", "101954.548000", "101954.550000", "101954.553000", "101954.555000", "101954.558000", "101954.560000", "101954.562000", "101954.565000", "101954.567000", "101954.570000", "101954.572000", "101954.574000", "101954.577000", "101954.579000", "101954.589000", "101954.592000", "101954.594000", "101954.597000", "101954.599000", "101954.601000", "101954.604000", "101954.607000", "102014.521000", "102014.524000", "102014.526000", "102014.529000", "102014.531000", "102014.533000", "102014.536000", "102014.538000", "102014.541000", "102014.543000", "102014.545000", "102014.548000", "102014.550000", "102014.553000", "102014.555000", "102014.557000", "102014.560000", "102014.562000", "102014.565000", "102014.567000", "102014.570000", "102014.573000", "102014.575000", "102014.577000", "102014.580000", "102014.582000", "102014.585000", "102014.587000", "102014.590000", "102014.592000", "102014.594000", "102014.597000", "102014.599000", "102034.521000", "102034.524000", "102034.526000", "102034.528000", "102034.531000", "102034.533000", "102034.536000", "102034.538000", "102034.540000", "102034.543000", "102034.545000", "102034.547000", "102034.550000", "102034.552000", "102034.555000", "102034.557000", "102034.559000", "102034.562000", "102034.564000", "102034.567000", "102034.569000", "102034.571000", "102034.574000", "102034.576000", "102034.578000", "102034.581000", "102034.583000", "102034.586000", "102034.588000", "102034.591000", "102034.593000", "102034.595000", "102034.598000", "102054.521000", "102054.524000", "102054.526000", "102054.529000", "102054.531000", "102054.533000", "102054.536000", "102054.539000", "102054.541000", "102054.544000", "102054.546000", "102054.549000", "102054.551000", "102054.553000", "102054.556000", "102054.558000", "102054.560000", "102054.563000", "102054.595000", "102054.597000", "102054.599000", "102054.602000", "102054.604000", "102054.606000", "102054.609000", "102054.611000", "102054.614000", "102054.616000", "102054.619000", "102054.621000", "102054.623000", "102054.626000", "102114.521000", "102114.524000", "102114.526000", "102114.528000", "102114.531000", "102114.533000", "102114.536000", "102114.538000", "102114.541000", "102114.543000", "102114.545000", "102114.548000", "102114.550000", "102114.553000", "102114.555000", "102114.557000", "102114.560000", "102114.562000", "102114.565000", "102114.567000", "102114.570000", "102114.572000", "102114.575000", "102114.577000", "102114.579000", "102114.582000", "102114.584000", "102114.587000", "102114.589000", "102114.591000", "102114.594000", "102114.596000", "102114.599000", "102132.938000", "102132.941000", "102132.943000", "102132.946000", "102132.948000", "102132.951000", "102132.953000", "102132.956000", "102132.958000", "102132.961000", "102132.963000", "102132.965000", "102132.968000", "102132.970000", "102132.973000", "102132.975000", "102132.978000", "102132.980000", "102132.983000", "102132.985000", "102132.988000", "102132.990000", "102132.992000", "102132.995000", "102132.997000", "102133.000000", "102133.003000", "102133.005000", "102133.007000", "102133.010000", "102133.012000"], "InstanceCreationTime": ["101634.527000", "101634.530000", "101634.532000", "101634.535000", "101634.537000", "101634.543000", "101634.545000", "101634.548000", "101634.550000", "101634.552000", "101634.555000", "101634.557000", "101634.559000", "101634.562000", "101634.564000", "101634.566000", "101634.569000", "101634.571000", "101634.574000", "101634.576000", "101654.521000", "101654.524000", "101654.526000", "101654.531000", "101654.534000", "101654.536000", "101654.539000", "101654.542000", "101654.544000", "101654.547000", "101654.549000", "101654.551000", "101654.554000", "101654.556000", "101654.559000", "101654.561000", "101654.564000", "101654.567000", "101654.569000", "101654.572000", "101654.574000", "101654.577000", "101654.579000", "101654.581000", "101654.584000", "101654.587000", "101654.589000", "101654.592000", "101654.594000", "101654.604000", "101654.606000", "101654.609000", "101654.611000", "101714.521000", "101714.524000", "101714.526000", "101714.529000", "101714.531000", "101714.534000", "101714.536000", "101714.538000", "101714.541000", "101714.543000", "101714.545000", "101714.548000", "101714.550000", "101714.553000", "101714.555000", "101714.557000", "101714.560000", "101714.562000", "101714.565000", "101714.567000", "101714.569000", "101714.572000", "101714.574000", "101714.576000", "101714.579000", "101714.581000", "101714.584000", "101714.586000", "101714.589000", "101714.591000", "101714.593000", "101714.596000", "101714.598000", "101734.521000", "101734.524000", "101734.526000", "101734.529000", "101734.532000", "101734.534000", "101734.536000", "101734.539000", "101734.541000", "101734.544000", "101734.546000", "101734.548000", "101734.551000", "101734.553000", "101734.556000", "101734.558000", "101734.560000", "101734.563000", "101734.565000", "101734.567000", "101734.570000", "101734.572000", "101734.574000", "101734.577000", "101734.579000", "101734.582000", "101734.584000", "101734.587000", "101734.589000", "101734.592000", "101734.594000", "101734.596000", "101734.599000", "101754.521000", "101754.524000", "101754.526000", "101754.528000", "101754.531000", "101754.533000", "101754.536000", "101754.538000", "101754.541000", "101754.543000", "101754.545000", "101754.548000", "101754.550000", "101754.552000", "101754.555000", "101754.557000", "101754.560000", "101754.562000", "101754.565000", "101754.567000", "101754.569000", "101754.572000", "101754.574000", "101754.577000", "101754.579000", "101754.581000", "101754.584000", "101754.586000", "101754.596000", "101754.598000", "101754.601000", "101754.603000", "101814.521000", "101814.524000", "101814.526000", "101814.529000", "101814.531000", "101814.533000", "101814.549000", "101814.551000", "101814.554000", "101814.556000", "101814.558000", "101814.561000", "101814.563000", "101814.567000", "101814.570000", "101814.572000", "101814.575000", "101814.577000", "101814.579000", "101814.582000", "101814.584000", "101814.587000", "101814.589000", "101814.591000", "101814.594000", "101814.596000", "101814.599000", "101814.601000", "101814.604000", "101814.606000", "101814.608000", "101814.611000", "101814.613000", "101834.521000", "101834.529000", "101834.531000", "101834.533000", "101834.536000", "101834.538000", "101834.540000", "101834.543000", "101834.545000", "101834.548000", "101834.550000", "101834.552000", "101834.555000", "101834.557000", "101834.560000", "101834.562000", "101834.565000", "101834.567000", "101834.569000", "101834.572000", "101834.574000", "101834.576000", "101834.579000", "101834.581000", "101834.584000", "101834.586000", "101834.588000", "101834.591000", "101834.593000", "101834.596000", "101834.598000", "101834.601000", "101834.603000", "101854.521000", "101854.525000", "101854.527000", "101854.529000", "101854.532000", "101854.534000", "101854.536000", "101854.539000", "101854.541000", "101854.544000", "101854.546000", "101854.548000", "101854.551000", "101854.553000", "101854.556000", "101854.558000", "101854.560000", "101854.563000", "101854.565000", "101854.568000", "101854.570000", "101854.573000", "101854.575000", "101854.577000", "101854.580000", "101854.582000", "101854.584000", "101854.587000", "101854.589000", "101854.592000", "101854.594000", "101854.596000", "101854.599000", "101914.521000", "101914.524000", "101914.526000", "101914.529000", "101914.531000", "101914.534000", "101914.536000", "101914.538000", "101914.541000", "101914.543000", "101914.545000", "101914.548000", "101914.550000", "101914.552000", "101914.555000", "101914.557000", "101914.559000", "101914.562000", "101914.564000", "101914.566000", "101914.569000", "101914.571000", "101914.574000", "101914.576000", "101914.579000", "101914.581000", "101914.583000", "101914.586000", "101914.588000", "101914.590000", "101914.593000", "101914.595000", "101914.597000", "101934.521000", "101934.524000", "101934.526000", "101934.529000", "101934.531000", "101934.534000", "101934.536000", "101934.539000", "101934.541000", "101934.543000", "101934.546000", "101934.548000", "101934.551000", "101934.553000", "101934.556000", "101934.558000", "101934.560000", "101934.563000", "101934.565000", "101934.567000", "101934.570000", "101934.572000", "101934.575000", "101934.577000", "101934.579000", "101934.582000", "101934.584000", "101934.586000", "101934.589000", "101934.591000", "101934.594000", "101934.596000", "101954.521000", "101954.524000", "101954.526000", "101954.529000", "101954.531000", "101954.5340