{"AcquisitionMatrixPE": 64, "AcquisitionNumber": 1, "AcquisitionTime": "14:10:31.695000", "BandwidthPerPixelPhaseEncode": 28.935, "BaseResolution": 64, "BodyPartExamined": "BRAIN", "CoilCombinationMethod": "Sum of Squares", "ConsistencyInfo": "N4_VE11E_LATEST_20181129", "ConversionSoftware": "dcm2niix", "ConversionSoftwareVersion": "v1.0.20230411", "DerivedVendorReportedEchoSpacing": 0.000540003, "DeviceSerialNumber": "166182", "DwellTime": 3.4e-06, "EchoTime": 0.032, "EchoTrainLength": 64, "EffectiveEchoSpacing": 0.000540003, "FlipAngle": 40, "HeudiconvVersion": "0.13.1", "ImageOrientationPatientDICOM": [0.99983, 0.00477311, 0.0178155, -0.0022686, 0.990424, -0.138037], "ImageOrientationText": "Tra>Cor(-7.9)>Sag(1.0)", "ImageType": ["ORIGINAL", "PRIMARY", "M", "ND", "NORM", "MOSAIC"], "ImagingFrequency": 123.253845, "InPlanePhaseEncodingDirectionDICOM": "COL", "InstitutionAddress": "PEARSE STREET .,City,District,IE,D2", "InstitutionName": "TCIN", "InstitutionalDepartmentName": "MRI", "MRAcquisitionType": "2D", "MagneticFieldStrength": 3, "Manufacturer": "Siemens", "ManufacturersModelName": "Prisma", "Modality": "MR", "MultibandAccelerationFactor": 4, "NonlinearGradientCorrection": false, "PartialFourier": 1, "PatientPosition": "HFS", "PercentPhaseFOV": 100, "PercentSampling": 100, "PhaseEncodingDirection": "j-", "PhaseEncodingSteps": 64, "PhaseResolution": 1, "PixelBandwidth": 2300, "ProcedureStepDescription": "Rhodri^Head BOLD", "ProtocolName": "cmrr_mbep2d_Pictures_AP_RDS", "PulseSequenceDetails": "%SiemensSeq%\\ep2d_bold", "ReceiveCoilActiveElements": "HC2,4,6,7", "ReceiveCoilName": "HeadNeck_64", "ReconMatrixPE": 64, "RefLinesPE": 12, "RepetitionTime": 0.61, "SAR": 0.210961, "ScanOptions": "FS", "ScanningSequence": "EP", "SequenceName": "*epfid2d1_64", "SequenceVariant": "SK", "SeriesDescription": "cmrr_mbep2d_Pictures_AP_RDS", "SeriesNumber": 8, "ShimSetting": [-3579, -7486, 3959, 1023, -87, 510, 150, 27], "SliceThickness": 3, "SliceTiming": [0.2625, 0, 0.3275, 0.065, 0.3925, 0.13, 0.4575, 0.195, 0.525, 0.2625, 0, 0.3275, 0.065, 0.3925, 0.13, 0.4575, 0.195, 0.525, 0.2625, 0, 0.3275, 0.065, 0.3925, 0.13, 0.4575, 0.195, 0.525, 0.2625, 0, 0.3275, 0.065, 0.3925, 0.13, 0.4575, 0.195, 0.525], "SoftwareVersions": "syngo MR E11", "SpacingBetweenSlices": 3.3, "StationName": "AWP166182", "TaskName": "pictures", "TotalReadoutTime": 0.0340202, "TxRefAmp": 242.284, "dcmmeta_affine": [[-2.9994897842407227, -0.006805801298469305, 0.06040230765938759, 101.18159484863281], [-0.014319341629743576, 2.971273422241211, -0.45531168580055237, -91.33433532714844], [0.053446363657712936, 0.4141114056110382, 3.267880439758301, -96.89008331298828], [0.0, 0.0, 0.0, 1.0]], "dcmmeta_reorient_transform": [[0.0, -1.0, 0.0, 63.0], [1.0, 0.0, 0.0, 0.0], [0.0, 0.0, 1.0, 0.0], [0.0, 0.0, 0.0, 1.0]], "dcmmeta_shape": [64, 64, 36, 510], "dcmmeta_slice_dim": 2, "dcmmeta_version": 0.6, "global": {"const": {"AcquisitionMatrix": [64, 0, 0, 64], "AngioFlag": "N", "BitsAllocated": 16, "BitsStored": 12, "BodyPartExamined": "BRAIN", "Columns": 384, "EchoNumbers": 1, "EchoTime": 32.0, "EchoTrainLength": 64, "FlipAngle": 40.0, "HighBit": 11, "ImageOrientationPatient": [0.9998298990065, 0.00477311398135, 0.01781545496372, -0.0022686004257, 0.99042445647626, -0.1380371307504], "ImagePositionPatient": [-579.58225361169, -573.55071955274, -13.094660938252], "ImageType": ["ORIGINAL", "PRIMARY", "M", "ND", "NORM", "MOSAIC"], "ImagedNucleus": "1H", "ImagingFrequency": 123.253845, "InPlanePhaseEncodingDirection": "COL", "MRAcquisitionType": "2D", "MagneticFieldStrength": 3.0, "Manufacturer": "SIEMENS", "ManufacturerModelName": "Prisma", "Modality": "MR", "NumberOfAverages": 1.0, "NumberOfPhaseEncodingSteps": 64, "PercentPhaseFieldOfView": 100.0, "PercentSampling": 100.0, "PerformedProcedureStepStartTime": "140216.774000", "PhotometricInterpretation": "MONOCHROME2", "PixelBandwidth": 2300.0, "PixelRepresentation": 0, "PixelSpacing": [3.0, 3.0], "ProtocolName": "cmrr_mbep2d_Pictures_AP_RDS", "RepetitionTime": 610.0, "Rows": 384, "SAR": 0.21096128184888, "SamplesPerPixel": 1, "ScanOptions": "FS", "ScanningSequence": "EP", "SequenceName": "*epfid2d1_64", "SequenceVariant": "SK", "SeriesDescription": "cmrr_mbep2d_Pictures_AP_RDS", "SeriesNumber": 8, "SeriesTime": "141050.260000", "SliceLocation": -81.493339335956, "SliceThickness": 3.0, "SmallestImagePixelValue": 0, "SoftwareVersions": "syngo MR E11", "SpacingBetweenSlices": 3.2999999868396, "SpecificCharacterSet": "ISO_IR 100", "StudyID": "1", "StudyTime": "140216.675000", "TransmitCoilName": "Body", "VariableFlipAngleFlag": "N", "WindowCenterWidthExplanation": "Algo1"}, "slices": {}}, "time": {"samples": {"AcquisitionNumber": [1, 2, 3, 4, 5, 6, 7, 8, 9, 10, 11, 12, 13, 14, 15, 16, 17, 18, 19, 20, 21, 22, 23, 24, 25, 26, 27, 28, 29, 30, 31, 32, 33, 34, 35, 36, 37, 38, 39, 40, 41, 42, 43, 44, 45, 46, 47, 48, 49, 50, 51, 52, 53, 54, 55, 56, 57, 58, 59, 60, 61, 62, 63, 64, 65, 66, 67, 68, 69, 70, 71, 72, 73, 74, 75, 76, 77, 78, 79, 80, 81, 82, 83, 84, 85, 86, 87, 88, 89, 90, 91, 92, 93, 94, 95, 96, 97, 98, 99, 100, 101, 102, 103, 104, 105, 106, 107, 108, 109, 110, 111, 112, 113, 114, 115, 116, 117, 118, 119, 120, 121, 122, 123, 124, 125, 126, 127, 128, 129, 130, 131, 132, 133, 134, 135, 136, 137, 138, 139, 140, 141, 142, 143, 144, 145, 146, 147, 148, 149, 150, 151, 152, 153, 154, 155, 156, 157, 158, 159, 160, 161, 162, 163, 164, 165, 166, 167, 168, 169, 170, 171, 172, 173, 174, 175, 176, 177, 178, 179, 180, 181, 182, 183, 184, 185, 186, 187, 188, 189, 190, 191, 192, 193, 194, 195, 196, 197, 198, 199, 200, 201, 202, 203, 204, 205, 206, 207, 208, 209, 210, 211, 212, 213, 214, 215, 216, 217, 218, 219, 220, 221, 222, 223, 224, 225, 226, 227, 228, 229, 230, 231, 232, 233, 234, 235, 236, 237, 238, 239, 240, 241, 242, 243, 244, 245, 246, 247, 248, 249, 250, 251, 252, 253, 254, 255, 256, 257, 258, 259, 260, 261, 262, 263, 264, 265, 266, 267, 268, 269, 270, 271, 272, 273, 274, 275, 276, 277, 278, 279, 280, 281, 282, 283, 284, 285, 286, 287, 288, 289, 290, 291, 292, 293, 294, 295, 296, 297, 298, 299, 300, 301, 302, 303, 304, 305, 306, 307, 308, 309, 310, 311, 312, 313, 314, 315, 316, 317, 318, 319, 320, 321, 322, 323, 324, 325, 326, 327, 328, 329, 330, 331, 332, 333, 334, 335, 336, 337, 338, 339, 340, 341, 342, 343, 344, 345, 346, 347, 348, 349, 350, 351, 352, 353, 354, 355, 356, 357, 358, 359, 360, 361, 362, 363, 364, 365, 366, 367, 368, 369, 370, 371, 372, 373, 374, 375, 376, 377, 378, 379, 380, 381, 382, 383, 384, 385, 386, 387, 388, 389, 390, 391, 392, 393, 394, 395, 396, 397, 398, 399, 400, 401, 402, 403, 404, 405, 406, 407, 408, 409, 410, 411, 412, 413, 414, 415, 416, 417, 418, 419, 420, 421, 422, 423, 424, 425, 426, 427, 428, 429, 430, 431, 432, 433, 434, 435, 436, 437, 438, 439, 440, 441, 442, 443, 444, 445, 446, 447, 448, 449, 450, 451, 452, 453, 454, 455, 456, 457, 458, 459, 460, 461, 462, 463, 464, 465, 466, 467, 468, 469, 470, 471, 472, 473, 474, 475, 476, 477, 478, 479, 480, 481, 482, 483, 484, 485, 486, 487, 488, 489, 490, 491, 492, 493, 494, 495, 496, 497, 498, 499, 500, 501, 502, 503, 504, 505, 506, 507, 508, 509, 510], "AcquisitionTime": ["141031.695000", "141032.305000", "141032.915000", "141033.525000", "141034.135000", "141034.745000", "141035.355000", "141035.965000", "141036.575000", "141037.185000", "141037.795000", "141038.405000", "141039.015000", "141039.625000", "141040.235000", "141040.845000", "141041.455000", "141042.065000", "141042.675000", "141043.285000", "141043.895000", "141044.505000", "141045.115000", "141045.725000", "141046.335000", "141046.945000", "141047.555000", "141048.165000", "141048.775000", "141049.385000", "141049.995000", "141050.605000", "141051.215000", "141051.825000", "141052.435000", "141053.045000", "141053.655000", "141054.265000", "141054.875000", "141055.485000", "141056.095000", "141056.705000", "141057.315000", "141057.925000", "141058.535000", "141059.145000", "141059.755000", "141100.365000", "141100.975000", "141101.585000", "141102.195000", "141102.805000", "141103.415000", "141104.025000", "141104.635000", "141105.245000", "141105.855000", "141106.465000", "141107.075000", "141107.685000", "141108.295000", "141108.905000", "141109.515000", "141110.125000", "141110.735000", "141111.345000", "141111.955000", "141112.565000", "141113.175000", "141113.785000", "141114.395000", "141115.005000", "141115.615000", "141116.225000", "141116.835000", "141117.445000", "141118.055000", "141118.665000", "141119.275000", "141119.885000", "141120.495000", "141121.105000", "141121.715000", "141122.325000", "141122.935000", "141123.545000", "141124.155000", "141124.765000", "141125.375000", "141125.985000", "141126.595000", "141127.205000", "141127.815000", "141128.425000", "141129.035000", "141129.645000", "141130.255000", "141130.865000", "141131.475000", "141132.085000", "141132.695000", "141133.305000", "141133.915000", "141134.525000", "141135.135000", "141135.745000", "141136.355000", "141136.965000", "141137.575000", "141138.185000", "141138.795000", "141139.405000", "141140.015000", "141140.625000", "141141.235000", "141141.845000", "141142.455000", "141143.065000", "141143.675000", "141144.285000", "141144.895000", "141145.505000", "141146.115000", "141146.725000", "141147.335000", "141147.945000", "141148.555000", "141149.165000", "141149.775000", "141150.385000", "141150.995000", "141151.605000", "141152.215000", "141152.825000", "141153.435000", "141154.045000", "141154.655000", "141155.265000", "141155.875000", "141156.485000", "141157.095000", "141157.705000", "141158.315000", "141158.925000", "141159.535000", "141200.145000", "141200.755000", "141201.365000", "141201.975000", "141202.585000", "141203.195000", "141203.805000", "141204.415000", "141205.025000", "141205.635000", "141206.245000", "141206.855000", "141207.465000", "141208.075000", "141208.685000", "141209.295000", "141209.905000", "141210.515000", "141211.125000", "141211.735000", "141212.345000", "141212.955000", "141213.565000", "141214.175000", "141214.785000", "141215.395000", "141216.005000", "141216.615000", "141217.225000", "141217.835000", "141218.445000", "141219.055000", "141219.665000", "141220.275000", "141220.885000", "141221.495000", "141222.105000", "141222.715000", "141223.325000", "141223.935000", "141224.545000", "141225.155000", "141225.765000", "141226.375000", "141226.985000", "141227.595000", "141228.205000", "141228.815000", "141229.425000", "141230.035000", "141230.645000", "141231.255000", "141231.865000", "141232.475000", "141233.085000", "141233.695000", "141234.305000", "141234.915000", "141235.525000", "141236.135000", "141236.745000", "141237.355000", "141237.965000", "141238.575000", "141239.185000", "141239.795000", "141240.405000", "141241.015000", "141241.625000", "141242.235000", "141242.845000", "141243.455000", "141244.065000", "141244.675000", "141245.285000", "141245.895000", "141246.505000", "141247.115000", "141247.725000", "141248.335000", "141248.945000", "141249.555000", "141250.165000", "141250.775000", "141251.385000", "141251.995000", "141252.605000", "141253.215000", "141253.825000", "141254.435000", "141255.045000", "141255.655000", "141256.265000", "141256.875000", "141257.485000", "141258.095000", "141258.705000", "141259.315000", "141259.925000", "141300.535000", "141301.145000", "141301.755000", "141302.365000", "141302.975000", "141303.585000", "141304.195000", "141304.805000", "141305.415000", "141306.025000", "141306.635000", "141307.245000", "141307.855000", "141308.465000", "141309.075000", "141309.685000", "141310.295000", "141310.905000", "141311.515000", "141312.125000", "141312.735000", "141313.345000", "141313.955000", "141314.565000", "141315.175000", "141315.785000", "141316.395000", "141317.005000", "141317.615000", "141318.225000", "141318.835000", "141319.445000", "141320.055000", "141320.665000", "141321.275000", "141321.885000", "141322.495000", "141323.105000", "141323.715000", "141324.325000", "141324.935000", "141325.545000", "141326.155000", "141326.765000", "141327.375000", "141327.985000", "141328.595000", "141329.205000", "141329.815000", "141330.425000", "141331.035000", "141331.645000", "141332.255000", "141332.865000", "141333.475000", "141334.085000", "141334.695000", "141335.305000", "141335.915000", "141336.525000", "141337.135000", "141337.745000", "141338.355000", "141338.965000", "141339.575000", "141340.185000", "141340.795000", "141341.405000", "141342.015000", "141342.625000", "141343.235000", "141343.845000", "141344.455000", "141345.065000", "141345.675000", "141346.285000", "141346.895000", "141347.505000", "141348.115000", "141348.725000", "141349.335000", "141349.945000", "141350.555000", "141351.165000", "141351.775000", "141352.385000", "141352.995000", "141353.605000", "141354.215000", "141354.825000", "141355.435000", "141356.045000", "141356.655000", "141357.265000", "141357.875000", "141358.485000", "141359.095000", "141359.705000", "141400.315000", "141400.925000", "141401.535000", "141402.145000", "141402.755000", "141403.365000", "141403.975000", "141404.585000", "141405.195000", "141405.805000", "141406.415000", "141407.025000", "141407.635000", "141408.245000", "141408.855000", "141409.465000", "141410.075000", "141410.685000", "141411.295000", "141411.905000", "141412.515000", "141413.125000", "141413.735000", "141414.345000", "141414.955000", "141415.565000", "141416.175000", "141416.785000", "141417.395000", "141418.005000", "141418.615000", "141419.225000", "141419.835000", "141420.445000", "141421.055000", "141421.665000", "141422.275000", "141422.885000", "141423.495000", "141424.105000", "141424.715000", "141425.325000", "141425.935000", "141426.545000", "141427.155000", "141427.765000", "141428.375000", "141428.985000", "141429.595000", "141430.205000", "141430.815000", "141431.425000", "141432.035000", "141432.645000", "141433.255000", "141433.865000", "141434.475000", "141435.085000", "141435.695000", "141436.305000", "141436.915000", "141437.525000", "141438.135000", "141438.745000", "141439.355000", "141439.965000", "141440.575000", "141441.185000", "141441.795000", "141442.405000", "141443.015000", "141443.625000", "141444.235000", "141444.845000", "141445.455000", "141446.065000", "141446.675000", "141447.285000", "141447.895000", "141448.505000", "141449.115000", "141449.725000", "141450.335000", "141450.945000", "141451.555000", "141452.165000", "141452.775000", "141453.385000", "141453.995000", "141454.605000", "141455.215000", "141455.825000", "141456.435000", "141457.045000", "141457.655000", "141458.265000", "141458.875000", "141459.485000", "141500.095000", "141500.705000", "141501.315000", "141501.925000", "141502.535000", "141503.145000", "141503.755000", "141504.365000", "141504.975000", "141505.585000", "141506.195000", "141506.805000", "141507.415000", "141508.025000", "141508.635000", "141509.245000", "141509.855000", "141510.465000", "141511.075000", "141511.685000", "141512.295000", "141512.905000", "141513.515000", "141514.125000", "141514.735000", "141515.345000", "141515.955000", "141516.565000", "141517.175000", "141517.785000", "141518.395000", "141519.005000", "141519.615000", "141520.225000", "141520.835000", "141521.445000", "141522.055000", "141522.665000", "141523.275000", "141523.885000", "141524.495000", "141525.105000", "141525.715000", "141526.325000", "141526.935000", "141527.545000", "141528.155000", "141528.765000", "141529.375000", "141529.985000", "141530.595000", "141531.205000", "141531.815000", "141532.425000", "141533.035000", "141533.645000", "141534.255000", "141534.865000", "141535.475000", "141536.085000", "141536.695000", "141537.305000", "141537.915000", "141538.525000", "141539.135000", "141539.745000", "141540.355000", "141540.965000", "141541.575000", "141542.185000"], "ContentTime": ["141050.264000", "141050.267000", "141050.269000", "141050.271000", "141050.274000", "141050.276000", "141050.279000", "141050.281000", "141050.283000", "141050.290000", "141050.292000", "141050.294000", "141050.297000", "141050.299000", "141050.301000", "141050.304000", "141050.306000", "141050.308000", "141050.311000", "141050.313000", "141050.316000", "141050.318000", "141050.343000", "141050.345000", "141050.347000", "141050.350000", "141050.352000", "141050.361000", "141050.368000", "141110.259000", "141110.262000", "141110.264000", "141110.266000", "141110.269000", "141110.271000", "141110.273000", "141110.276000", "141110.278000", "141110.280000", "141110.283000", "141110.285000", "141110.287000", "141110.290000", "141110.292000", "141110.294000", "141110.297000", "141110.299000", "141110.302000", "141110.304000", "141110.306000", "141110.309000", "141110.311000", "141110.313000", "141110.316000", "141110.319000", "141110.321000", "141110.323000", "141110.329000", "141110.331000", "141110.334000", "141110.336000", "141110.338000", "141130.258000", "141130.261000", "141130.263000", "141130.265000", "141130.268000", "141130.270000", "141130.272000", "141130.275000", "141130.277000", "141130.279000", "141130.282000", "141130.284000", "141130.286000", "141130.289000", "141130.291000", "141130.293000", "141130.302000", "141130.305000", "141130.307000", "141130.309000", "141130.312000", "141130.314000", "141130.316000", "141130.319000", "141130.321000", "141130.324000", "141130.326000", "141130.329000", "141130.331000", "141130.333000", "141130.336000", "141130.339000", "141130.341000", "141150.258000", "141150.261000", "141150.263000", "141150.266000", "141150.268000", "141150.270000", "141150.273000", "141150.275000", "141150.277000", "141150.280000", "141150.282000", "141150.284000", "141150.287000", "141150.289000", "141150.291000", "141150.294000", "141150.296000", "141150.299000", "141150.301000", "141150.303000", "141150.306000", "141150.308000", "141150.310000", "141150.313000", "141150.316000", "141150.318000", "141150.320000", "141150.322000", "141150.325000", "141150.328000", "141150.330000", "141150.332000", "141150.335000", "141210.259000", "141210.261000", "141210.264000", "141210.266000", "141210.269000", "141210.271000", "141210.273000", "141210.276000", "141210.278000", "141210.280000", "141210.283000", "141210.285000", "141210.287000", "141210.290000", "141210.292000", "141210.294000", "141210.297000", "141210.299000", "141210.302000", "141210.304000", "141210.306000", "141210.309000", "141210.311000", "141210.314000", "141210.316000", "141210.318000", "141210.321000", "141210.323000", "141210.325000", "141210.328000", "141210.330000", "141210.333000", "141230.258000", "141230.261000", "141230.263000", "141230.266000", "141230.268000", "141230.270000", "141230.273000", "141230.275000", "141230.277000", "141230.280000", "141230.282000", "141230.284000", "141230.287000", "141230.289000", "141230.292000", "141230.294000", "141230.296000", "141230.299000", "141230.301000", "141230.303000", "141230.306000", "141230.308000", "141230.310000", "141230.313000", "141230.315000", "141230.317000", "141230.320000", "141230.322000", "141230.324000", "141230.327000", "141230.329000", "141230.332000", "141230.334000", "141250.258000", "141250.261000", "141250.263000", "141250.265000", "141250.268000", "141250.270000", "141250.272000", "141250.275000", "141250.277000", "141250.280000", "141250.282000", "141250.284000", "141250.287000", "141250.289000", "141250.291000", "141250.294000", "141250.296000", "141250.298000", "141250.301000", "141250.303000", "141250.306000", "141250.308000", "141250.311000", "141250.313000", "141250.315000", "141250.318000", "141250.320000", "141250.322000", "141250.325000", "141250.327000", "141250.329000", "141250.332000", "141250.334000", "141310.259000", "141310.262000", "141310.264000", "141310.266000", "141310.269000", "141310.271000", "141310.273000", "141310.276000", "141310.278000", "141310.281000", "141310.283000", "141310.285000", "141310.288000", "141310.290000", "141310.293000", "141310.303000", "141310.305000", "141310.307000", "141310.310000", "141310.312000", "141310.315000", "141310.317000", "141310.319000", "141310.322000", "141310.324000", "141310.327000", "141310.329000", "141310.331000", "141310.334000", "141310.336000", "141310.338000", "141310.341000", "141310.343000", "141330.259000", "141330.262000", "141330.264000", "141330.266000", "141330.269000", "141330.271000", "141330.274000", "141330.277000", "141330.279000", "141330.282000", "141330.284000", "141330.286000", "141330.289000", "141330.291000", "141330.294000", "141330.296000", "141330.299000", "141330.301000", "141330.303000", "141330.306000", "141330.309000", "141330.311000", "141330.314000", "141330.316000", "141330.319000", "141330.321000", "141330.323000", "141330.326000", "141330.328000", "141330.331000", "141330.333000", "141330.335000", "141330.338000", "141350.258000", "141350.261000", "141350.263000", "141350.266000", "141350.268000", "141350.270000", "141350.273000", "141350.275000", "141350.277000", "141350.280000", "141350.282000", "141350.284000", "141350.287000", "141350.289000", "141350.291000", "141350.294000", "141350.296000", "141350.299000", "141350.301000", "141350.303000", "141350.306000", "141350.308000", "141350.311000", "141350.313000", "141350.316000", "141350.318000", "141350.320000", "141350.323000", "141350.325000", "141350.328000", "141350.330000", "141350.333000", "141410.258000", "141410.261000", "141410.264000", "141410.267000", "141410.269000", "141410.271000", "141410.274000", "141410.276000", "141410.278000", "141410.281000", "141410.283000", "141410.286000", "141410.288000", "141410.291000", "141410.293000", "141410.296000", "141410.298000", "141410.300000", "141410.303000", "141410.305000", "141410.307000", "141410.310000", "141410.312000", "141410.314000", "141410.317000", "141410.320000", "141410.322000", "141410.325000", "141410.327000", "141410.330000", "141410.332000", "141410.334000", "141410.337000", "141430.258000", "141430.261000", "141430.263000", "141430.266000", "141430.268000", "141430.270000", "141430.273000", "141430.275000", "141430.277000", "141430.280000", "141430.282000", "141430.285000", "141430.287000", "141430.289000", "141430.292000", "141430.294000", "141430.296000", "141430.299000", "141430.301000", "141430.304000", "141430.306000", "141430.308000", "141430.311000", "141430.313000", "141430.316000", "141430.318000", "141430.320000", "141430.323000", "141430.325000", "141430.328000", "141430.330000", "141430.332000", "141430.335000", "141450.258000", "141450.261000", "141450.263000", "141450.266000", "141450.268000", "141450.270000", "141450.273000", "141450.275000", "141450.278000", "141450.280000", "141450.282000", "141450.285000", "141450.287000", "141450.289000", "141450.292000", "141450.294000", "141450.297000", "141450.299000", "141450.301000", "141450.304000", "141450.306000", "141450.308000", "141450.311000", "141450.313000", "141450.316000", "141450.318000", "141450.320000", "141450.323000", "141450.325000", "141450.327000", "141450.330000", "141450.332000", "141450.334000", "141510.258000", "141510.261000", "141510.263000", "141510.266000", "141510.268000", "141510.270000", "141510.273000", "141510.275000", "141510.278000", "141510.280000", "141510.282000", "141510.285000", "141510.287000", "141510.290000", "141510.292000", "141510.294000", "141510.297000", "141510.299000", "141510.301000", "141510.304000", "141510.306000", "141510.308000", "141510.311000", "141510.313000", "141510.315000", "141510.318000", "141510.320000", "141510.322000", "141510.325000", "141510.327000", "141510.330000", "141510.332000", "141510.334000", "141530.259000", "141530.262000", "141530.265000", "141530.268000", "141530.270000", "141530.272000", "141530.275000", "141530.278000", "141530.280000", "141530.282000", "141530.285000", "141530.287000", "141530.290000", "141530.292000", "141530.295000", "141530.297000", "141530.299000", "141530.302000", "141530.304000", "141530.306000", "141530.309000", "141530.311000", "141530.314000", "141530.316000", "141530.318000", "141530.321000", "141530.323000", "141530.326000", "141530.328000", "141530.331000", "141530.333000", "141530.336000", "141543.097000", "141543.100000", "141543.102000", "141543.105000", "141543.107000", "141543.110000", "141543.112000", "141543.114000", "141543.117000", "141543.119000", "141543.121000", "141543.124000", "141543.126000", "141543.129000", "141543.131000", "141543.133000", "141543.136000", "141543.138000", "141543.141000", "141543.143000", "141543.145000", "141543.148000"], "InstanceCreationTime": ["141050.264000", "141050.267000", "141050.269000", "141050.271000", "141050.274000", "141050.276000", "141050.279000", "141050.281000", "141050.283000", "141050.290000", "141050.292000", "141050.294000", "141050.297000", "141050.299000", "141050.301000", "141050.304000", "141050.306000", "141050.308000", "141050.311000", "141050.313000", "141050.316000", "141050.318000", "141050.343000", "141050.345000", "141050.347000", "141050.350000", "141050.352000", "141050.361000", "141050.368000", "141110.259000", "141110.262000", "141110.264000", "141110.266000", "141110.269000", "141110.271000", "141110.273000", "141110.276000", "141110.278000", "141110.280000", "141110.283000", "141110.285000", "141110.287000", "141110.290000", "141110.292000", "141110.294000", "141110.297000", "141110.299000", "141110.302000", "141110.304000", "141110.306000", "141110.309000", "141110.311000", "141110.313000", "141110.316000", "141110.319000", "141110.321000", "141110.323000", "141110.329000", "141110.331000", "141110.334000", "141110.336000", "141110.338000", "141130.258000", "141130.261000", "141130.263000", "141130.265000", "141130.268000", "141130.270000", "141130.272000", "141130.275000", "141130.277000", "141130.279000", "141130.282000", "141130.284000", "141130.286000", "141130.289000", "141130.291000", "141130.293000", "141130.302000", "141130.305000", "141130.307000", "141130.309000", "141130.312000", "141130.314000", "141130.316000", "141130.319000", "141130.321000", "141130.324000", "141130.326000", "141130.329000", "141130.331000", "141130.333000", "141130.336000", "141130.339000", "141130.341000", "141150.258000", "141150.261000", "141150.263000", "141150.266000", "141150.268000", "141150.270000", "141150.273000", "141150.275000", "141150.277000", "141150.280000", "141150.282000", "141150.284000", "141150.287000", "141150.289000", "141150.291000", "141150.294000", "141150.296000", "141150.299000", "141150.301000", "141150.303000", "141150.306000", "141150.308000", "141150.310000", "141150.313000", "141150.316000", "141150.318000", "141150.320000", "141150.322000", "141150.325000", "141150.328000", "141150.330000", "141150.332000", "141150.335000", "141210.259000", "141210.261000", "141210.264000", "141210.266000", "141210.269000", "141210.271000", "141210.273000", "141210.276000", "141210.278000", "141210.280000", "141210.283000", "141210.285000", "141210.287000", "141210.290000", "141210.292000", "141210.294000", "141210.297000", "141210.299000", "141210.302000", "141210.304000", "141210.306000", "141210.309000", "141210.311000", "141210.314000", "141210.316000", "141210.318000", "141210.321000", "141210.323000", "141210.325000", "141210.328000", "141210.330000", "141210.333000", "141230.258000", "141230.261000", "141230.263000", "141230.266000", "141230.268000", "141230.270000", "141230.273000", "141230.275000", "141230.277000", "141230.280000", "141230.282000", "141230.284000", "141230.287000", "141230.289000", "141230.292000", "141230.294000", "141230.296000", "141230.299000", "141230.301000", "141230.303000", "141230.306000", "141230.308000", "141230.310000", "141230.313000", "141230.315000", "141230.317000", "141230.320000", "141230.322000", "141230.324000", "141230.327000", "141230.329000", "141230.332000", "141230.334000", "141250.258000", "141250.261000", "141250.263000", "141250.265000", "141250.268000", "141250.270000", "141250.272000", "141250.275000", "141250.277000", "141250.280000", "141250.282000", "141250.284000", "141250.287000", "141250.289000", "141250.291000", "141250.294000", "141250.296000", "141250.298000", "141250.301000", "141250.303000", "141250.306000", "141250.308000", "141250.311000", "141250.313000", "141250.315000", "141250.318000", "141250.320000", "141250.322000", "141250.325000", "141250.327000", "141250.329000", "141250.332000", "141250.334000", "141310.259000", "141310.262000", "141310.264000", "141310.266000", "141310.269000", "141310.271000", "141310.273000", "141310.276000", "141310.278000", "141310.281000", "141310.283000", "141310.285000", "141310.288000", "141310.290000", "141310.293000", "141310.303000", "141310.305000", "141310.307000", "141310.310000", "141310.312000", "141310.315000", "141310.317000", "141310.319000", "141310.322000", "141310.324000", "141310.327000", "141310.329000", "141310.331000", "141310.334000", "141310.336000", "141310.338000", "141310.341000", "141310.343000", "141330.259000", "141330.262000", "141330.264000", "141330.266000", "141330.269000", "141330.271000", "141330.274000", "141330.277000", "141330.279000", "141330.282000", "141330.284000", "141330.286000", "141330.289000", "141330.291000", "141330.294000", "141330.296000", "141330.299000", "141330.301000", "141330.303000", "141330.306000", "141330.309000", "141330.311000", "141330.314000", "141330.316000", "141330.319000", "141330.321000", "141330.323000", "141330.326000", "141330.328000", "141330.331000", "141330.333000", "141330.335000", "141330.338000", "141350.258000", "141350.261000", "141350.263000", "141350.266000", "141350.268000", "141350.270000", "141350.273000", "141350.275000", "141350.277000", "141350.280000", "141350.282000", "141350.284000", "141350.287000", "141350.289000", "141350.291000", "141350.294000", "141350.296000", "141350.299000", "141350.301000", "141350.303000", "141350.306000", "141350.308000", "141350.311000", "141350.313000", "141350.316000", "141350.318000", "141350.320000", "141350.323000", "1