{"AcquisitionMatrixPE": 64, "AcquisitionNumber": 1, "AcquisitionTime": "11:23:39.615000", "BandwidthPerPixelPhaseEncode": 28.935, "BaseResolution": 64, "BodyPartExamined": "BRAIN", "CoilCombinationMethod": "Sum of Squares", "ConsistencyInfo": "N4_VE11E_LATEST_20181129", "ConversionSoftware": "dcm2niix", "ConversionSoftwareVersion": "v1.0.20230411", "DerivedVendorReportedEchoSpacing": 0.000540003, "DeviceSerialNumber": "166182", "DwellTime": 3.4e-06, "EchoTime": 0.032, "EchoTrainLength": 64, "EffectiveEchoSpacing": 0.000540003, "FlipAngle": 40, "HeudiconvVersion": "0.13.1", "ImageOrientationPatientDICOM": [0.998648, -0.0503504, -0.0129456, 0.0453483, 0.965431, -0.256682], "ImageOrientationText": "Tra>Cor(-14.8)>Sag(-1.5)", "ImageType": ["ORIGINAL", "PRIMARY", "M", "ND", "NORM", "MOSAIC"], "ImagingFrequency": 123.254468, "InPlanePhaseEncodingDirectionDICOM": "COL", "InstitutionAddress": "PEARSE STREET .,City,District,IE,D2", "InstitutionName": "TCIN", "InstitutionalDepartmentName": "MRI", "MRAcquisitionType": "2D", "MagneticFieldStrength": 3, "Manufacturer": "Siemens", "ManufacturersModelName": "Prisma", "Modality": "MR", "MultibandAccelerationFactor": 4, "NonlinearGradientCorrection": false, "PartialFourier": 1, "PatientPosition": "HFS", "PercentPhaseFOV": 100, "PercentSampling": 100, "PhaseEncodingDirection": "j-", "PhaseEncodingSteps": 64, "PhaseResolution": 1, "PixelBandwidth": 2300, "ProcedureStepDescription": "Rhodri^Head BOLD", "ProtocolName": "cmrr_mbep2d_Pictures_AP_RDS", "PulseSequenceDetails": "%SiemensSeq%\\ep2d_bold", "ReceiveCoilActiveElements": "HC2,4,6,7", "ReceiveCoilName": "HeadNeck_64", "ReconMatrixPE": 64, "RefLinesPE": 12, "RepetitionTime": 0.61, "SAR": 0.416035, "ScanOptions": "FS", "ScanningSequence": "EP", "SequenceName": "*epfid2d1_64", "SequenceVariant": "SK", "SeriesDescription": "cmrr_mbep2d_Pictures_AP_RDS", "SeriesNumber": 10, "ShimSetting": [-3686, -7493, 3935, 560, -18, 633, 35, 34], "SliceThickness": 3, "SliceTiming": [0.2625, 0, 0.33, 0.0675, 0.395, 0.1325, 0.46, 0.1975, 0.525, 0.2625, 0, 0.33, 0.0675, 0.395, 0.1325, 0.46, 0.1975, 0.525, 0.2625, 0, 0.33, 0.0675, 0.395, 0.1325, 0.46, 0.1975, 0.525, 0.2625, 0, 0.33, 0.0675, 0.395, 0.1325, 0.46, 0.1975, 0.525], "SoftwareVersions": "syngo MR E11", "SpacingBetweenSlices": 3.3, "StationName": "AWP166182", "TaskName": "pictures", "TotalReadoutTime": 0.0340202, "TxRefAmp": 298.099, "dcmmeta_affine": [[-2.995943069458008, 0.13604487478733063, -0.08389315009117126, 92.75171661376953], [0.15105126798152924, 2.896294355392456, -0.8439680933952332, -89.97073364257812], [-0.03883688151836395, 0.7700462341308594, 3.189150333404541, -108.22545623779297], [0.0, 0.0, 0.0, 1.0]], "dcmmeta_reorient_transform": [[0.0, -1.0, 0.0, 63.0], [1.0, 0.0, 0.0, 0.0], [0.0, 0.0, 1.0, 0.0], [0.0, 0.0, 0.0, 1.0]], "dcmmeta_shape": [64, 64, 36, 467], "dcmmeta_slice_dim": 2, "dcmmeta_version": 0.6, "global": {"const": {"AcquisitionMatrix": [64, 0, 0, 64], "AngioFlag": "N", "BitsAllocated": 16, "BitsStored": 12, "BodyPartExamined": "BRAIN", "Columns": 384, "EchoNumbers": 1, "EchoTime": 32.0, "EchoTrainLength": 64, "FlipAngle": 40.0, "HighBit": 11, "ImageOrientationPatient": [0.99864770856463, -0.0503504211342, -0.0129456274561, 0.04534829254317, 0.96543142842359, -0.2566820784071], "ImagePositionPatient": [-602.44062735461, -531.73468952611, 69.708756819415], "ImageType": ["ORIGINAL", "PRIMARY", "M", "ND", "NORM", "MOSAIC"], "ImagedNucleus": "1H", "ImagingFrequency": 123.254468, "InPlanePhaseEncodingDirection": "COL", "MRAcquisitionType": "2D", "MagneticFieldStrength": 3.0, "Manufacturer": "SIEMENS", "ManufacturerModelName": "Prisma", "Modality": "MR", "NumberOfAverages": 1.0, "NumberOfPhaseEncodingSteps": 64, "PercentPhaseFieldOfView": 100.0, "PercentSampling": 100.0, "PerformedProcedureStepStartTime": "104636.907000", "PhotometricInterpretation": "MONOCHROME2", "PixelBandwidth": 2300.0, "PixelRepresentation": 0, "PixelSpacing": [3.0, 3.0], "ProtocolName": "cmrr_mbep2d_Pictures_AP_RDS", "RepetitionTime": 610.0, "Rows": 384, "SAR": 0.41603540090582, "SamplesPerPixel": 1, "ScanOptions": "FS", "ScanningSequence": "EP", "SequenceName": "*epfid2d1_64", "SequenceVariant": "SK", "SeriesDescription": "cmrr_mbep2d_Pictures_AP_RDS", "SeriesNumber": 10, "SeriesTime": "112409.218000", "SliceLocation": -83.938196775067, "SliceThickness": 3.0, "SmallestImagePixelValue": 0, "SoftwareVersions": "syngo MR E11", "SpacingBetweenSlices": 3.2999999826931, "SpecificCharacterSet": "ISO_IR 100", "StudyID": "1", "StudyTime": "104636.706000", "TransmitCoilName": "Body", "VariableFlipAngleFlag": "N", "WindowCenterWidthExplanation": "Algo1"}, "slices": {}}, "time": {"samples": {"AcquisitionNumber": [1, 2, 3, 4, 5, 6, 7, 8, 9, 10, 11, 12, 13, 14, 15, 16, 17, 18, 19, 20, 21, 22, 23, 24, 25, 26, 27, 28, 29, 30, 31, 32, 33, 34, 35, 36, 37, 38, 39, 40, 41, 42, 43, 44, 45, 46, 47, 48, 49, 50, 51, 52, 53, 54, 55, 56, 57, 58, 59, 60, 61, 62, 63, 64, 65, 66, 67, 68, 69, 70, 71, 72, 73, 74, 75, 76, 77, 78, 79, 80, 81, 82, 83, 84, 85, 86, 87, 88, 89, 90, 91, 92, 93, 94, 95, 96, 97, 98, 99, 100, 101, 102, 103, 104, 105, 106, 107, 108, 109, 110, 111, 112, 113, 114, 115, 116, 117, 118, 119, 120, 121, 122, 123, 124, 125, 126, 127, 128, 129, 130, 131, 132, 133, 134, 135, 136, 137, 138, 139, 140, 141, 142, 143, 144, 145, 146, 147, 148, 149, 150, 151, 152, 153, 154, 155, 156, 157, 158, 159, 160, 161, 162, 163, 164, 165, 166, 167, 168, 169, 170, 171, 172, 173, 174, 175, 176, 177, 178, 179, 180, 181, 182, 183, 184, 185, 186, 187, 188, 189, 190, 191, 192, 193, 194, 195, 196, 197, 198, 199, 200, 201, 202, 203, 204, 205, 206, 207, 208, 209, 210, 211, 212, 213, 214, 215, 216, 217, 218, 219, 220, 221, 222, 223, 224, 225, 226, 227, 228, 229, 230, 231, 232, 233, 234, 235, 236, 237, 238, 239, 240, 241, 242, 243, 244, 245, 246, 247, 248, 249, 250, 251, 252, 253, 254, 255, 256, 257, 258, 259, 260, 261, 262, 263, 264, 265, 266, 267, 268, 269, 270, 271, 272, 273, 274, 275, 276, 277, 278, 279, 280, 281, 282, 283, 284, 285, 286, 287, 288, 289, 290, 291, 292, 293, 294, 295, 296, 297, 298, 299, 300, 301, 302, 303, 304, 305, 306, 307, 308, 309, 310, 311, 312, 313, 314, 315, 316, 317, 318, 319, 320, 321, 322, 323, 324, 325, 326, 327, 328, 329, 330, 331, 332, 333, 334, 335, 336, 337, 338, 339, 340, 341, 342, 343, 344, 345, 346, 347, 348, 349, 350, 351, 352, 353, 354, 355, 356, 357, 358, 359, 360, 361, 362, 363, 364, 365, 366, 367, 368, 369, 370, 371, 372, 373, 374, 375, 376, 377, 378, 379, 380, 381, 382, 383, 384, 385, 386, 387, 388, 389, 390, 391, 392, 393, 394, 395, 396, 397, 398, 399, 400, 401, 402, 403, 404, 405, 406, 407, 408, 409, 410, 411, 412, 413, 414, 415, 416, 417, 418, 419, 420, 421, 422, 423, 424, 425, 426, 427, 428, 429, 430, 431, 432, 433, 434, 435, 436, 437, 438, 439, 440, 441, 442, 443, 444, 445, 446, 447, 448, 449, 450, 451, 452, 453, 454, 455, 456, 457, 458, 459, 460, 461, 462, 463, 464, 465, 466, 467], "AcquisitionTime": ["112339.615000", "112340.225000", "112340.835000", "112341.445000", "112342.055000", "112342.665000", "112343.275000", "112343.885000", "112344.495000", "112345.105000", "112345.715000", "112346.325000", "112346.935000", "112347.545000", "112348.155000", "112348.765000", "112349.375000", "112349.985000", "112350.595000", "112351.205000", "112351.815000", "112352.425000", "112353.035000", "112353.645000", "112354.255000", "112354.865000", "112355.475000", "112356.085000", "112356.695000", "112357.305000", "112357.915000", "112358.525000", "112359.135000", "112359.745000", "112400.355000", "112400.965000", "112401.575000", "112402.185000", "112402.795000", "112403.405000", "112404.015000", "112404.625000", "112405.235000", "112405.845000", "112406.455000", "112407.065000", "112407.675000", "112408.285000", "112408.895000", "112409.505000", "112410.115000", "112410.725000", "112411.335000", "112411.945000", "112412.555000", "112413.165000", "112413.775000", "112414.385000", "112414.995000", "112415.605000", "112416.215000", "112416.825000", "112417.435000", "112418.045000", "112418.655000", "112419.265000", "112419.875000", "112420.485000", "112421.095000", "112421.705000", "112422.315000", "112422.925000", "112423.535000", "112424.145000", "112424.755000", "112425.365000", "112425.975000", "112426.585000", "112427.195000", "112427.805000", "112428.415000", "112429.025000", "112429.635000", "112430.245000", "112430.855000", "112431.465000", "112432.075000", "112432.685000", "112433.295000", "112433.905000", "112434.515000", "112435.125000", "112435.735000", "112436.345000", "112436.955000", "112437.565000", "112438.175000", "112438.785000", "112439.395000", "112440.005000", "112440.615000", "112441.225000", "112441.835000", "112442.445000", "112443.055000", "112443.665000", "112444.275000", "112444.885000", "112445.495000", "112446.105000", "112446.715000", "112447.325000", "112447.935000", "112448.545000", "112449.155000", "112449.765000", "112450.375000", "112450.985000", "112451.595000", "112452.205000", "112452.815000", "112453.425000", "112454.035000", "112454.645000", "112455.255000", "112455.865000", "112456.475000", "112457.085000", "112457.695000", "112458.305000", "112458.915000", "112459.525000", "112500.135000", "112500.745000", "112501.355000", "112501.965000", "112502.575000", "112503.185000", "112503.795000", "112504.405000", "112505.015000", "112505.625000", "112506.235000", "112506.845000", "112507.455000", "112508.065000", "112508.675000", "112509.285000", "112509.895000", "112510.505000", "112511.115000", "112511.725000", "112512.335000", "112512.945000", "112513.555000", "112514.165000", "112514.775000", "112515.385000", "112515.995000", "112516.605000", "112517.215000", "112517.825000", "112518.435000", "112519.045000", "112519.655000", "112520.265000", "112520.875000", "112521.485000", "112522.095000", "112522.705000", "112523.315000", "112523.925000", "112524.535000", "112525.145000", "112525.755000", "112526.365000", "112526.975000", "112527.585000", "112528.195000", "112528.805000", "112529.415000", "112530.025000", "112530.635000", "112531.245000", "112531.855000", "112532.465000", "112533.075000", "112533.685000", "112534.295000", "112534.905000", "112535.515000", "112536.125000", "112536.735000", "112537.345000", "112537.955000", "112538.565000", "112539.175000", "112539.785000", "112540.395000", "112541.005000", "112541.615000", "112542.225000", "112542.835000", "112543.445000", "112544.055000", "112544.665000", "112545.275000", "112545.885000", "112546.495000", "112547.105000", "112547.715000", "112548.325000", "112548.935000", "112549.545000", "112550.155000", "112550.765000", "112551.375000", "112551.985000", "112552.595000", "112553.205000", "112553.815000", "112554.425000", "112555.035000", "112555.645000", "112556.255000", "112556.865000", "112557.475000", "112558.085000", "112558.695000", "112559.305000", "112559.915000", "112600.525000", "112601.135000", "112601.745000", "112602.355000", "112602.965000", "112603.575000", "112604.185000", "112604.795000", "112605.405000", "112606.015000", "112606.625000", "112607.235000", "112607.845000", "112608.455000", "112609.065000", "112609.675000", "112610.285000", "112610.895000", "112611.505000", "112612.115000", "112612.725000", "112613.335000", "112613.945000", "112614.555000", "112615.165000", "112615.775000", "112616.385000", "112616.995000", "112617.605000", "112618.215000", "112618.825000", "112619.435000", "112620.045000", "112620.655000", "112621.265000", "112621.875000", "112622.485000", "112623.095000", "112623.705000", "112624.315000", "112624.925000", "112625.535000", "112626.145000", "112626.755000", "112627.365000", "112627.975000", "112628.585000", "112629.195000", "112629.805000", "112630.415000", "112631.025000", "112631.635000", "112632.245000", "112632.855000", "112633.465000", "112634.075000", "112634.685000", "112635.295000", "112635.905000", "112636.515000", "112637.125000", "112637.735000", "112638.345000", "112638.955000", "112639.565000", "112640.175000", "112640.785000", "112641.395000", "112642.005000", "112642.615000", "112643.225000", "112643.835000", "112644.445000", "112645.055000", "112645.665000", "112646.275000", "112646.885000", "112647.495000", "112648.105000", "112648.715000", "112649.325000", "112649.935000", "112650.545000", "112651.155000", "112651.765000", "112652.375000", "112652.985000", "112653.595000", "112654.205000", "112654.815000", "112655.425000", "112656.035000", "112656.645000", "112657.255000", "112657.865000", "112658.475000", "112659.085000", "112659.695000", "112700.305000", "112700.915000", "112701.525000", "112702.135000", "112702.745000", "112703.355000", "112703.965000", "112704.575000", "112705.185000", "112705.795000", "112706.405000", "112707.015000", "112707.625000", "112708.235000", "112708.845000", "112709.455000", "112710.065000", "112710.675000", "112711.285000", "112711.895000", "112712.505000", "112713.115000", "112713.725000", "112714.335000", "112714.945000", "112715.555000", "112716.165000", "112716.775000", "112717.385000", "112717.995000", "112718.605000", "112719.215000", "112719.825000", "112720.435000", "112721.045000", "112721.655000", "112722.265000", "112722.875000", "112723.485000", "112724.095000", "112724.705000", "112725.315000", "112725.925000", "112726.535000", "112727.145000", "112727.755000", "112728.365000", "112728.975000", "112729.585000", "112730.195000", "112730.805000", "112731.415000", "112732.025000", "112732.635000", "112733.245000", "112733.855000", "112734.465000", "112735.075000", "112735.685000", "112736.295000", "112736.905000", "112737.515000", "112738.125000", "112738.735000", "112739.345000", "112739.955000", "112740.565000", "112741.175000", "112741.785000", "112742.395000", "112743.005000", "112743.615000", "112744.225000", "112744.835000", "112745.445000", "112746.055000", "112746.665000", "112747.275000", "112747.885000", "112748.495000", "112749.105000", "112749.715000", "112750.325000", "112750.935000", "112751.545000", "112752.155000", "112752.765000", "112753.375000", "112753.985000", "112754.595000", "112755.205000", "112755.815000", "112756.425000", "112757.035000", "112757.645000", "112758.255000", "112758.865000", "112759.475000", "112800.085000", "112800.695000", "112801.305000", "112801.915000", "112802.525000", "112803.135000", "112803.745000", "112804.355000", "112804.965000", "112805.575000", "112806.185000", "112806.795000", "112807.405000", "112808.015000", "112808.625000", "112809.235000", "112809.845000", "112810.455000", "112811.065000", "112811.675000", "112812.285000", "112812.895000", "112813.505000", "112814.115000", "112814.725000", "112815.335000", "112815.945000", "112816.555000", "112817.165000", "112817.775000", "112818.385000", "112818.995000", "112819.605000", "112820.215000", "112820.825000", "112821.435000", "112822.045000", "112822.655000", "112823.265000", "112823.875000"], "ContentTime": ["112409.221000", "112409.225000", "112409.227000", "112409.229000", "112409.232000", "112409.237000", "112409.240000", "112409.242000", "112409.244000", "112409.247000", "112409.249000", "112409.252000", "112409.254000", "112409.257000", "112409.259000", "112409.261000", "112409.264000", "112409.266000", "112409.269000", "112409.271000", "112409.274000", "112409.276000", "112409.279000", "112409.281000", "112409.283000", "112409.286000", "112409.288000", "112409.291000", "112409.293000", "112409.295000", "112409.298000", "112409.300000", "112409.303000", "112409.305000", "112409.308000", "112409.310000", "112409.313000", "112409.315000", "112409.318000", "112409.320000", "112409.323000", "112409.325000", "112409.328000", "112409.330000", "112409.333000", "112409.335000", "112409.337000", "112409.340000", "112429.217000", "112429.220000", "112429.222000", "112429.224000", "112429.227000", "112429.229000", "112429.232000", "112429.234000", "112429.236000", "112429.239000", "112429.241000", "112429.243000", "112429.246000", "112429.248000", "112429.250000", "112429.253000", "112429.255000", "112429.258000", "112429.260000", "112429.262000", "112429.265000", "112429.267000", "112429.270000", "112429.272000", "112429.274000", "112429.277000", "112429.279000", "112429.281000", "112429.284000", "112429.286000", "112429.295000", "112429.298000", "112429.300000", "112449.217000", "112449.220000", "112449.222000", "112449.229000", "112449.232000", "112449.234000", "112449.237000", "112449.239000", "112449.241000", "112449.244000", "112449.246000", "112449.249000", "112449.251000", "112449.254000", "112449.257000", "112449.259000", "112449.262000", "112449.264000", "112449.267000", "112449.269000", "112449.271000", "112449.274000", "112449.276000", "112449.279000", "112449.281000", "112449.283000", "112449.286000", "112449.288000", "112449.291000", "112449.293000", "112449.295000", "112449.298000", "112509.217000", "112509.220000", "112509.222000", "112509.225000", "112509.227000", "112509.230000", "112509.232000", "112509.234000", "112509.237000", "112509.239000", "112509.242000", "112509.244000", "112509.246000", "112509.249000", "112509.251000", "112509.254000", "112509.256000", "112509.266000", "112509.268000", "112509.271000", "112509.274000", "112509.276000", "112509.279000", "112509.281000", "112509.283000", "112509.286000", "112509.288000", "112509.291000", "112509.293000", "112509.295000", "112509.298000", "112509.300000", "112509.302000", "112529.217000", "112529.220000", "112529.222000", "112529.224000", "112529.227000", "112529.229000", "112529.232000", "112529.234000", "112529.237000", "112529.239000", "112529.241000", "112529.244000", "112529.246000", "112529.249000", "112529.251000", "112529.254000", "112529.256000", "112529.259000", "112529.261000", "112529.263000", "112529.266000", "112529.268000", "112529.270000", "112529.273000", "112529.275000", "112529.278000", "112529.280000", "112529.282000", "112529.285000", "112529.287000", "112529.290000", "112529.292000", "112529.294000", "112549.216000", "112549.219000", "112549.221000", "112549.224000", "112549.226000", "112549.228000", "112549.231000", "112549.233000", "112549.236000", "112549.238000", "112549.241000", "112549.243000", "112549.245000", "112549.248000", "112549.250000", "112549.252000", "112549.255000", "112549.257000", "112549.260000", "112549.262000", "112549.265000", "112549.267000", "112549.270000", "112549.272000", "112549.274000", "112549.277000", "112549.279000", "112549.282000", "112549.284000", "112549.286000", "112549.289000", "112549.291000", "112549.294000", "112609.216000", "112609.219000", "112609.221000", "112609.224000", "112609.226000", "112609.228000", "112609.231000", "112609.233000", "112609.235000", "112609.238000", "112609.240000", "112609.243000", "112609.245000", "112609.247000", "112609.250000", "112609.252000", "112609.255000", "112609.257000", "112609.259000", "112609.262000", "112609.264000", "112609.267000", "112609.269000", "112609.271000", "112609.274000", "112609.276000", "112609.278000", "112609.281000", "112609.283000", "112609.286000", "112609.288000", "112609.290000", "112609.293000", "112629.216000", "112629.219000", "112629.221000", "112629.223000", "112629.226000", "112629.228000", "112629.231000", "112629.233000", "112629.235000", "112629.238000", "112629.240000", "112629.242000", "112629.245000", "112629.247000", "112629.250000", "112629.252000", "112629.254000", "112629.257000", "112629.259000", "112629.262000", "112629.279000", "112629.282000", "112629.284000", "112629.287000", "112629.289000", "112629.291000", "112629.294000", "112629.296000", "112629.299000", "112629.301000", "112629.303000", "112629.306000", "112649.217000", "112649.220000", "112649.222000", "112649.225000", "112649.227000", "112649.229000", "112649.232000", "112649.234000", "112649.237000", "112649.239000", "112649.241000", "112649.244000", "112649.246000", "112649.249000", "112649.252000", "112649.255000", "112649.258000", "112649.260000", "112649.262000", "112649.265000", "112649.267000", "112649.270000", "112649.272000", "112649.274000", "112649.277000", "112649.279000", "112649.282000", "112649.284000", "112649.286000", "112649.289000", "112649.291000", "112649.294000", "112649.296000", "112709.217000", "112709.220000", "112709.222000", "112709.225000", "112709.227000", "112709.230000", "112709.232000", "112709.234000", "112709.237000", "112709.239000", "112709.241000", "112709.244000", "112709.246000", "112709.249000", "112709.251000", "112709.253000", "112709.256000", "112709.258000", "112709.261000", "112709.263000", "112709.265000", "112709.268000", "112709.270000", "112709.273000", "112709.275000", "112709.277000", "112709.280000", "112709.282000", "112709.285000", "112709.287000", "112709.291000", "112709.293000", "112709.296000", "112729.217000", "112729.227000", "112729.229000", "112729.232000", "112729.234000", "112729.237000", "112729.239000", "112729.241000", "112729.244000", "112729.246000", "112729.248000", "112729.251000", "112729.253000", "112729.256000", "112729.258000", "112729.261000", "112729.263000", "112729.266000", "112729.268000", "112729.270000", "112729.273000", "112729.275000", "112729.278000", "112729.280000", "112729.282000", "112729.285000", "112729.287000", "112729.290000", "112729.292000", "112729.294000", "112729.297000", "112729.299000", "112729.301000", "112749.217000", "112749.220000", "112749.222000", "112749.225000", "112749.227000", "112749.230000", "112749.232000", "112749.235000", "112749.237000", "112749.239000", "112749.242000", "112749.244000", "112749.247000", "112749.249000", "112749.251000", "112749.254000", "112749.256000", "112749.259000", "112749.261000", "112749.264000", "112749.266000", "112749.268000", "112749.271000", "112749.273000", "112749.276000", "112749.278000", "112749.280000", "112749.283000", "112749.285000", "112749.288000", "112749.290000", "112749.293000", "112749.295000", "112809.216000", "112809.219000", "112809.221000", "112809.223000", "112809.226000", "112809.228000", "112809.231000", "112809.233000", "112809.235000", "112809.238000", "112809.240000", "112809.243000", "112809.245000", "112809.247000", "112809.250000", "112809.252000", "112809.254000", "112809.257000", "112809.259000", "112809.262000", "112809.264000", "112809.266000", "112809.269000", "112809.271000", "112809.274000", "112809.276000", "112809.279000", "112809.281000", "112809.283000", "112809.286000", "112809.288000", "112809.290000", "112825.362000", "112825.365000", "112825.367000", "112825.369000", "112825.372000", "112825.374000", "112825.377000", "112825.379000", "112825.382000", "112825.384000", "112825.387000", "112825.391000", "112825.393000", "112825.397000", "112825.400000", "112825.403000", "112825.405000", "112825.407000", "112825.410000", "112825.417000", "112825.420000", "112825.424000", "112825.427000", "112825.429000", "112825.432000", "112825.435000"], "InstanceCreationTime": ["112409.221000", "112409.225000", "112409.227000", "112409.229000", "112409.232000", "112409.237000", "112409.240000", "112409.242000", "112409.244000", "112409.247000", "112409.249000", "112409.252000", "112409.254000", "112409.257000", "112409.259000", "112409.261000", "112409.264000", "112409.266000", "112409.269000", "112409.271000", "112409.274000", "112409.276000", "112409.279000", "112409.281000", "112409.283000", "112409.286000", "112409.288000", "112409.291000", "112409.293000", "112409.295000", "112409.298000", "112409.300000", "112409.303000", "112409.305000", "112409.308000", "112409.310000", "112409.313000", "112409.315000", "112409.318000", "112409.320000", "112409.323000", "112409.325000", "112409.328000", "112409.330000", "112409.333000", "112409.335000", "112409.337000", "112409.340000", "112429.217000", "112429.220000", "112429.222000", "112429.224000", "112429.227000", "112429.229000", "112429.232000", "112429.234000", "112429.236000", "112429.239000", "112429.241000", "112429.243000", "112429.246000", "112429.248000", "112429.250000", "112429.253000", "112429.255000", "112429.258000", "112429.260000", "112429.262000", "112429.265000", "112429.267000", "112429.270000", "112429.272000", "112429.274000", "112429.277000", "112429.279000", "112429.281000", "112429.284000", "112429.286000", "112429.295000", "112429.298000", "112429.300000", "112449.217000", "112449.220000", "112449.222000", "112449.229000", "112449.232000", "112449.234000", "112449.237000", "112449.239000", "112449.241000", "112449.244000", "112449.246000", "112449.249000", "112449.251000", "112449.254000", "112449.257000", "112449.259000", "112449.262000", "112449.264000", "112449.267000", "112449.269000", "112449.271000", "112449.274000", "112449.276000", "112449.279000", "112449.281000", "112449.283000", "112449.286000", "112449.288000", "112449.291000", "112449.293000", "112449.295000", "112449.298000", "112509.217000", "112509.220000", "112509.222000", "112509.225000", "112509.227000", "112509.230000", "112509.232000", "112509.234000", "112509.237000", "112509.239000", "112509.242000", "112509.244000", "112509.246000", "112509.249000", "112509.251000", "112509.254000", "112509.256000", "112509.266000", "112509.268000", "112509.271000", "112509.274000", "112509.276000", "112509.279000", "112509.281000", "112509.283000", "112509.286000", "112509.288000", "112509.291000", "112509.293000", "112509.295000", "112509.298000", "112509.300000", "112509.302000", "112529.217000", "112529.220000", "112529.222000", "112529.224000", "112529.227000", "112529.229000", "112529.232000", "112529.234000", "112529.237000", "112529.239000", "112529.241000", "112529.244000", "112529.246000", "112529.249000", "112529.251000", "112529.254000", "112529.256000", "112529.259000", "112529.261000", "112529.263000", "112529.266000", "112529.268000", "112529.270000", "112529.273000", "112529.275000", "112529.278000", "112529.280000", "112529.282000", "112529.285000", "112529.287000", "112529.290000", "112529.292000", "112529.294000", "112549.216000", "112549.219000", "112549.221000", "112549.224000", "112549.226000", "112549.228000", "112549.231000", "112549.233000", "112549.236000", "112549.238000", "112549.241000", "112549.243000", "112549.245000", "112549.248000", "112549.250000", "112549.252000", "112549.255000", "112549.257000", "112549.260000", "112549.262000", "112549.265000", "112549.267000", "112549.270000", "112549.272000", "112549.274000", "112549.277000", "112549.279000", "112549.282000", "112549.284000", "112549.286000", "112549.289000", "112549.291000", "112549.294000", "112609.216000", "112609.219000", "112609.221000", "112609.224000", "112609.226000", "112609.228000", "112609.231000", "112609.233000", "112609.235000", "112609.238000", "112609.240000", "112609.243000", "112609.245000", "112609.247000", "112609.250000", "112609.252000", "112609.255000", "112609.257000", "112609.259000", "112609.262000", "112609.264000", "112609.267000", "112609.269000", "112609.271000", "112609.274000", "112609.276000", "112609.278000", "112609.281000", "112609.283000", "112609.286000", "112609.288000", "112609.290000", "112609.293000", "112629.216000", "112629.219000", "112629.221000", "112629.223000", "112629.226000", "112629.228000", "112629.231000", "112629.233000", "112629.235000", "112629.238000", "112629.240000", "112629.242000", "112629.245000", "112629.247000", "112629.250000", "112629.252000", "112629.254000", "112629.257000", "112629.259000", "112629.262000", "112629.279000", "112629.282000", "112629.284000", "112629.287000", "112629.289000", "112629.291000", "112629.294000", "112629.296000", "112629.299000", "112629.301000", "112629.303000", "112629.306000", "112649.217000", "112649.220000", "112649.222000", "112649.225000", "112649.227000", "112649.229000", "112649.232000", "112649.234000", "112649.237000", "112649.239000", "112649.241000", "112649.244000", "112649.246000", "112649.249000", "112649.252000", "112649.255000", "112649.258000", "112649.260000", "112649.262000", "112649.265000", "112649.267000", "112649.270000", "112649.272000", "112649.274000", "112649.277000", "112649.279000", "112649.282000", "112649.284000", "112649.286000", "112649.289000", "112649.291000", "112649.294000", "112649.296000", "112709.217000", "112709.220000", "112709.222000", "112709.225000", "112709.227000", "112709.230000", "112709.232000", "112709.234000", "112709.237000", "112709.239000", "112709.241000", "112709.244000", "112709.246000", "112709.249000", "112709.251000", "112709.253000", "112709.256000", "112709.258000", "112709.261000", "112709.263000", "112709.265000", "112709.268000", "112709.270000", "112709.273000", "112709.275000", "112709.277000", "112709.280000", "112709.282000", "112709.285000", "112709.287000", "112709.291000", "112709.293000", "112709.296000", "112729.217000", "112729.227000", "112729.229000", "112729.232000", "112729.234000", "112729.237000", "112729.239000", "112729.241000", "112729.244000", "112729.246000", "112729.248000", "112729.251000", "112729.253000", "112729.256000", "112729.258000", "112729.261000", "112729.263000", "112729.266000", "112729.268000", "112729.270000", "112729.273000", "112729.275000", "112729.278000", "112729.280000", "112729.282000", "112729.285000", "112729.287000", "112729.290000", "112729.292000", "112729.294000", "112729.297000", "112729.299000", "112729.301000", "112749.217000", "112749.220000", "112749.222000", "112749.225000", "112749.227000", "112749.230000", "112749.232000", "112749.235000", "112749.237000", "112749.239000", "112749.242000", "112749.244000", "112749.247000", "112749.249000", "112749.251000", "112749.254000", "112749.256000", "112749.259000", "112749.261000", "112749.264000", "112749.266000", "112749.268000", "112749.271000", "112749.273000", "112749.276000", "112749.278000", "112749.280000", "112749.283000", "112749.285000", "112749.288000", "112749.290000", "112749.293000", "112749.295000", "112809.216000", "112809.219000", "112809.221000", "112809.223000", "112809.226000", "112809.228000", "112809.231000", "112809.233000", "112809.235000", "112809.238000", "1