{"AcquisitionMatrixPE": 64, "AcquisitionNumber": 1, "AcquisitionTime": "15:07:25.082500", "BandwidthPerPixelPhaseEncode": 28.935, "BaseResolution": 64, "BodyPartExamined": "BRAIN", "CoilCombinationMethod": "Sum of Squares", "ConsistencyInfo": "N4_VE11E_LATEST_20181129", "ConversionSoftware": "dcm2niix", "ConversionSoftwareVersion": "v1.0.20230411", "DerivedVendorReportedEchoSpacing": 0.000540003, "DeviceSerialNumber": "166182", "DwellTime": 3.4e-06, "EchoTime": 0.032, "EchoTrainLength": 64, "EffectiveEchoSpacing": 0.000540003, "FlipAngle": 40, "HeudiconvVersion": "0.13.1", "ImageOrientationPatientDICOM": [0.995057, -0.098705, -0.0109003, 0.0968648, 0.988925, -0.112451], "ImageOrientationText": "Tra>Cor(-6.4)>Sag(-1.3)", "ImageType": ["ORIGINAL", "PRIMARY", "M", "ND", "NORM", "MOSAIC"], "ImagingFrequency": 123.256198, "InPlanePhaseEncodingDirectionDICOM": "COL", "InstitutionAddress": "PEARSE STREET .,City,District,IE,D2", "InstitutionName": "TCIN", "InstitutionalDepartmentName": "MRI", "MRAcquisitionType": "2D", "MagneticFieldStrength": 3, "Manufacturer": "Siemens", "ManufacturersModelName": "Prisma", "Modality": "MR", "MultibandAccelerationFactor": 4, "NonlinearGradientCorrection": false, "PartialFourier": 1, "PatientPosition": "HFS", "PercentPhaseFOV": 100, "PercentSampling": 100, "PhaseEncodingDirection": "j-", "PhaseEncodingSteps": 64, "PhaseResolution": 1, "PixelBandwidth": 2300, "ProcedureStepDescription": "Rhodri^Head BOLD", "ProtocolName": "cmrr_mbep2d_Pictures_AP_RDS", "PulseSequenceDetails": "%SiemensSeq%\\ep2d_bold", "ReceiveCoilActiveElements": "HC2,4,6,7;SC", "ReceiveCoilName": "SpecialPurpose_4", "ReconMatrixPE": 64, "RefLinesPE": 12, "RepetitionTime": 0.61, "SAR": 0.35771, "ScanOptions": "FS", "ScanningSequence": "EP", "SequenceName": "*epfid2d1_64", "SequenceVariant": "SK", "SeriesDescription": "cmrr_mbep2d_Pictures_AP_RDS", "SeriesNumber": 5, "ShimSetting": [-3676, -7471, 3858, 804, -19, 46, 102, 139], "SliceThickness": 3, "SliceTiming": [0.2625, 0, 0.3275, 0.065, 0.3925, 0.13, 0.4575, 0.1975, 0.525, 0.2625, 0, 0.3275, 0.065, 0.3925, 0.13, 0.4575, 0.1975, 0.525, 0.2625, 0, 0.3275, 0.065, 0.3925, 0.13, 0.4575, 0.1975, 0.525, 0.2625, 0, 0.3275, 0.065, 0.3925, 0.13, 0.4575, 0.1975, 0.525], "SoftwareVersions": "syngo MR E11", "SpacingBetweenSlices": 3.3, "StationName": "AWP166182", "TaskName": "pictures", "TotalReadoutTime": 0.0340202, "TxRefAmp": 249.305, "dcmmeta_affine": [[-2.98517107963562, 0.29059451818466187, -0.07220090180635452, 88.4364242553711], [0.2961149513721466, 2.9667739868164062, -0.36576876044273376, -107.30122375488281], [-0.03270101547241211, 0.3373521566390991, 3.278871774673462, -107.25272369384766], [0.0, 0.0, 0.0, 1.0]], "dcmmeta_reorient_transform": [[0.0, -1.0, 0.0, 63.0], [1.0, 0.0, 0.0, 0.0], [0.0, 0.0, 1.0, 0.0], [0.0, 0.0, 0.0, 1.0]], "dcmmeta_shape": [64, 64, 36, 252], "dcmmeta_slice_dim": 2, "dcmmeta_version": 0.6, "global": {"const": {"AcquisitionMatrix": [64, 0, 0, 64], "AngioFlag": "N", "BitsAllocated": 16, "BitsStored": 12, "BodyPartExamined": "BRAIN", "Columns": 384, "EchoNumbers": 1, "EchoTime": 32.0, "EchoTrainLength": 64, "FlipAngle": 40.0, "HighBit": 11, "ImageOrientationPatient": [0.99505703800982, -0.0987049832709, -0.0109003387389, 0.09686484301582, 0.98892468746145, -0.1124507212818], "ImagePositionPatient": [-630.86638592373, -506.91100170882, -26.791029357272], "ImageType": ["ORIGINAL", "PRIMARY", "M", "ND", "NORM", "MOSAIC"], "ImagedNucleus": "1H", "ImagingFrequency": 123.256198, "InPlanePhaseEncodingDirection": "COL", "MRAcquisitionType": "2D", "MagneticFieldStrength": 3.0, "Manufacturer": "SIEMENS", "ManufacturerModelName": "Prisma", "Modality": "MR", "NumberOfAverages": 1.0, "NumberOfPhaseEncodingSteps": 64, "PercentPhaseFieldOfView": 100.0, "PercentSampling": 100.0, "PerformedProcedureStepStartTime": "145550.896000", "PhotometricInterpretation": "MONOCHROME2", "PixelBandwidth": 2300.0, "PixelRepresentation": 0, "PixelSpacing": [3.0, 3.0], "ProtocolName": "cmrr_mbep2d_Pictures_AP_RDS", "RepetitionTime": 610.0, "Rows": 384, "SAR": 0.35770961077086, "SamplesPerPixel": 1, "ScanOptions": "FS", "ScanningSequence": "EP", "SequenceName": "*epfid2d1_64", "SequenceVariant": "SK", "SeriesDescription": "cmrr_mbep2d_Pictures_AP_RDS", "SeriesNumber": 5, "SeriesTime": "150756.536000", "SliceLocation": -96.607783747176, "SliceThickness": 3.0, "SmallestImagePixelValue": 0, "SoftwareVersions": "syngo MR E11", "SpacingBetweenSlices": 3.2999999634472, "SpecificCharacterSet": "ISO_IR 100", "StudyID": "2", "StudyTime": "145550.850000", "TransmitCoilName": "Body", "VariableFlipAngleFlag": "N", "WindowCenterWidthExplanation": "Algo1"}, "slices": {}}, "time": {"samples": {"AcquisitionNumber": [1, 2, 3, 4, 5, 6, 7, 8, 9, 10, 11, 12, 13, 14, 15, 16, 17, 18, 19, 20, 21, 22, 23, 24, 25, 26, 27, 28, 29, 30, 31, 32, 33, 34, 35, 36, 37, 38, 39, 40, 41, 42, 43, 44, 45, 46, 47, 48, 49, 50, 51, 52, 53, 54, 55, 56, 57, 58, 59, 60, 61, 62, 63, 64, 65, 66, 67, 68, 69, 70, 71, 72, 73, 74, 75, 76, 77, 78, 79, 80, 81, 82, 83, 84, 85, 86, 87, 88, 89, 90, 91, 92, 93, 94, 95, 96, 97, 98, 99, 100, 101, 102, 103, 104, 105, 106, 107, 108, 109, 110, 111, 112, 113, 114, 115, 116, 117, 118, 119, 120, 121, 122, 123, 124, 125, 126, 127, 128, 129, 130, 131, 132, 133, 134, 135, 136, 137, 138, 139, 140, 141, 142, 143, 144, 145, 146, 147, 148, 149, 150, 151, 152, 153, 154, 155, 156, 157, 158, 159, 160, 161, 162, 163, 164, 165, 166, 167, 168, 169, 170, 171, 172, 173, 174, 175, 176, 177, 178, 179, 180, 181, 182, 183, 184, 185, 186, 187, 188, 189, 190, 191, 192, 193, 194, 195, 196, 197, 198, 199, 200, 201, 202, 203, 204, 205, 206, 207, 208, 209, 210, 211, 212, 213, 214, 215, 216, 217, 218, 219, 220, 221, 222, 223, 224, 225, 226, 227, 228, 229, 230, 231, 232, 233, 234, 235, 236, 237, 238, 239, 240, 241, 242, 243, 244, 245, 246, 247, 248, 249, 250, 251, 252], "AcquisitionTime": ["150725.082500", "150725.692500", "150726.302500", "150726.912500", "150727.522500", "150728.132500", "150728.742500", "150729.352500", "150729.962500", "150730.572500", "150731.182500", "150731.792500", "150732.402500", "150733.012500", "150733.622500", "150734.232500", "150734.842500", "150735.452500", "150736.062500", "150736.672500", "150737.282500", "150737.892500", "150738.502500", "150739.112500", "150739.722500", "150740.332500", "150740.942500", "150741.552500", "150742.162500", "150742.772500", "150743.382500", "150743.992500", "150744.602500", "150745.212500", "150745.822500", "150746.432500", "150747.042500", "150747.652500", "150748.262500", "150748.872500", "150749.482500", "150750.092500", "150750.702500", "150751.312500", "150751.922500", "150752.532500", "150753.142500", "150753.752500", "150754.362500", "150754.972500", "150755.582500", "150756.192500", "150756.802500", "150757.412500", "150758.022500", "150758.632500", "150759.242500", "150759.852500", "150800.462500", "150801.072500", "150801.682500", "150802.292500", "150802.902500", "150803.512500", "150804.122500", "150804.732500", "150805.342500", "150805.952500", "150806.562500", "150807.172500", "150807.782500", "150808.392500", "150809.002500", "150809.612500", "150810.222500", "150810.832500", "150811.442500", "150812.052500", "150812.662500", "150813.272500", "150813.882500", "150814.492500", "150815.102500", "150815.712500", "150816.322500", "150816.932500", "150817.542500", "150818.152500", "150818.762500", "150819.372500", "150819.982500", "150820.592500", "150821.202500", "150821.812500", "150822.422500", "150823.032500", "150823.642500", "150824.252500", "150824.862500", "150825.472500", "150826.082500", "150826.692500", "150827.302500", "150827.912500", "150828.522500", "150829.132500", "150829.742500", "150830.352500", "150830.962500", "150831.572500", "150832.182500", "150832.792500", "150833.402500", "150834.012500", "150834.622500", "150835.232500", "150835.842500", "150836.452500", "150837.062500", "150837.672500", "150838.282500", "150838.892500", "150839.502500", "150840.112500", "150840.722500", "150841.332500", "150841.942500", "150842.552500", "150843.162500", "150843.772500", "150844.382500", "150844.992500", "150845.602500", "150846.212500", "150846.822500", "150847.432500", "150848.042500", "150848.652500", "150849.262500", "150849.872500", "150850.482500", "150851.092500", "150851.702500", "150852.312500", "150852.922500", "150853.532500", "150854.142500", "150854.752500", "150855.362500", "150855.972500", "150856.582500", "150857.192500", "150857.802500", "150858.412500", "150859.022500", "150859.632500", "150900.242500", "150900.852500", "150901.462500", "150902.072500", "150902.682500", "150903.292500", "150903.902500", "150904.512500", "150905.122500", "150905.732500", "150906.342500", "150906.952500", "150907.562500", "150908.172500", "150908.782500", "150909.392500", "150910.002500", "150910.612500", "150911.222500", "150911.832500", "150912.442500", "150913.052500", "150913.662500", "150914.272500", "150914.882500", "150915.492500", "150916.102500", "150916.712500", "150917.322500", "150917.932500", "150918.542500", "150919.152500", "150919.762500", "150920.372500", "150920.982500", "150921.592500", "150922.202500", "150922.812500", "150923.422500", "150924.032500", "150924.642500", "150925.252500", "150925.862500", "150926.472500", "150927.082500", "150927.692500", "150928.302500", "150928.912500", "150929.522500", "150930.132500", "150930.742500", "150931.352500", "150931.962500", "150932.572500", "150933.182500", "150933.792500", "150934.402500", "150935.012500", "150935.622500", "150936.232500", "150936.842500", "150937.452500", "150938.062500", "150938.672500", "150939.282500", "150939.892500", "150940.502500", "150941.112500", "150941.722500", "150942.332500", "150942.942500", "150943.552500", "150944.162500", "150944.772500", "150945.382500", "150945.992500", "150946.602500", "150947.212500", "150947.822500", "150948.432500", "150949.042500", "150949.652500", "150950.262500", "150950.872500", "150951.482500", "150952.092500", "150952.702500", "150953.312500", "150953.922500", "150954.532500", "150955.142500", "150955.752500", "150956.362500", "150956.972500", "150957.582500", "150958.192500"], "ContentTime": ["150756.539000", "150756.542000", "150756.545000", "150756.547000", "150756.549000", "150756.552000", "150756.554000", "150756.556000", "150756.563000", "150756.566000", "150756.568000", "150756.570000", "150756.573000", "150756.575000", "150756.577000", "150756.580000", "150756.582000", "150756.584000", "150756.587000", "150756.589000", "150756.592000", "150756.594000", "150756.597000", "150756.599000", "150756.602000", "150756.604000", "150756.606000", "150756.609000", "150756.611000", "150756.614000", "150756.616000", "150756.618000", "150756.622000", "150756.624000", "150756.627000", "150756.629000", "150756.631000", "150756.634000", "150756.636000", "150756.639000", "150756.641000", "150756.643000", "150756.646000", "150756.648000", "150756.650000", "150756.653000", "150756.655000", "150756.658000", "150756.661000", "150756.663000", "150816.535000", "150816.538000", "150816.540000", "150816.542000", "150816.545000", "150816.547000", "150816.549000", "150816.552000", "150816.554000", "150816.556000", "150816.559000", "150816.561000", "150816.563000", "150816.566000", "150816.568000", "150816.570000", "150816.573000", "150816.575000", "150816.577000", "150816.580000", "150816.582000", "150816.584000", "150816.587000", "150816.589000", "150816.591000", "150816.605000", "150816.608000", "150816.610000", "150816.618000", "150816.620000", "150816.622000", "150816.625000", "150816.627000", "150836.535000", "150836.538000", "150836.540000", "150836.543000", "150836.545000", "150836.547000", "150836.550000", "150836.552000", "150836.554000", "150836.557000", "150836.559000", "150836.561000", "150836.564000", "150836.566000", "150836.568000", "150836.571000", "150836.573000", "150836.576000", "150836.578000", "150836.581000", "150836.583000", "150836.585000", "150836.588000", "150836.590000", "150836.592000", "150836.595000", "150836.597000", "150836.600000", "150836.602000", "150836.604000", "150836.607000", "150836.609000", "150836.611000", "150856.535000", "150856.538000", "150856.540000", "150856.542000", "150856.545000", "150856.547000", "150856.549000", "150856.552000", "150856.554000", "150856.556000", "150856.559000", "150856.561000", "150856.563000", "150856.566000", "150856.568000", "150856.570000", "150856.573000", "150856.575000", "150856.577000", "150856.580000", "150856.582000", "150856.584000", "150856.587000", "150856.589000", "150856.591000", "150856.594000", "150856.597000", "150856.600000", "150856.602000", "150856.605000", "150856.607000", "150856.610000", "150916.535000", "150916.538000", "150916.540000", "150916.543000", "150916.545000", "150916.547000", "150916.550000", "150916.552000", "150916.554000", "150916.557000", "150916.559000", "150916.562000", "150916.564000", "150916.568000", "150916.571000", "150916.573000", "150916.575000", "150916.578000", "150916.580000", "150916.582000", "150916.585000", "150916.587000", "150916.589000", "150916.592000", "150916.594000", "150916.596000", "150916.599000", "150916.601000", "150916.604000", "150916.606000", "150916.608000", "150916.611000", "150916.613000", "150936.535000", "150936.538000", "150936.540000", "150936.542000", "150936.545000", "150936.547000", "150936.550000", "150936.552000", "150936.554000", "150936.557000", "150936.559000", "150936.561000", "150936.564000", "150936.566000", "150936.568000", "150936.571000", "150936.573000", "150936.576000", "150936.578000", "150936.581000", "150936.583000", "150936.585000", "150936.588000", "150936.590000", "150936.592000", "150936.595000", "150936.597000", "150936.599000", "150936.602000", "150936.604000", "150936.606000", "150936.609000", "150936.611000", "150956.534000", "150956.537000", "150956.539000", "150956.541000", "150956.544000", "150956.546000", "150956.548000", "150956.551000", "150956.553000", "150956.555000", "150956.558000", "150956.560000", "150956.563000", "150956.565000", "150956.567000", "150956.570000", "150956.572000", "150956.575000", "150956.577000", "150956.579000", "150956.582000", "150956.584000", "150956.586000", "150956.589000", "150956.592000", "150956.594000", "150956.596000", "150956.599000", "150956.601000", "150956.604000", "150956.606000", "150956.609000", "150956.611000", "150959.830000", "150959.833000", "150959.836000", "150959.838000", "150959.841000"], "InstanceCreationTime": ["150756.539000", "150756.542000", "150756.545000", "150756.547000", "150756.549000", "150756.552000", "150756.554000", "150756.556000", "150756.563000", "150756.566000", "150756.568000", "150756.570000", "150756.573000", "150756.575000", "150756.577000", "150756.580000", "150756.582000", "150756.584000", "150756.587000", "150756.589000", "150756.592000", "150756.594000", "150756.597000", "150756.599000", "150756.602000", "150756.604000", "150756.606000", "150756.609000", "150756.611000", "150756.614000", "150756.616000", "150756.618000", "150756.622000", "150756.624000", "150756.627000", "150756.629000", "150756.631000", "150756.634000", "150756.636000", "150756.639000", "150756.641000", "150756.643000", "150756.646000", "150756.648000", "150756.650000", "150756.653000", "150756.655000", "150756.658000", "150756.661000", "150756.663000", "150816.535000", "150816.538000", "150816.540000", "150816.542000", "150816.545000", "150816.547000", "150816.549000", "150816.552000", "150816.554000", "150816.556000", "150816.559000", "150816.561000", "150816.563000", "150816.566000", "150816.568000", "150816.570000", "150816.573000", "150816.575000", "150816.577000", "150816.580000", "150816.582000", "150816.584000", "150816.587000", "150816.589000", "150816.591000", "150816.605000", "150816.608000", "150816.610000", "150816.618000", "150816.620000", "150816.622000", "150816.625000", "150816.627000", "150836.535000", "150836.538000", "150836.540000", "150836.543000", "150836.545000", "150836.547000", "150836.550000", "150836.552000", "150836.554000", "150836.557000", "150836.559000", "150836.561000", "150836.564000", "150836.566000", "150836.568000", "150836.571000", "150836.573000", "150836.576000", "150836.578000", "150836.581000", "150836.583000", "150836.585000", "150836.588000", "150836.590000", "150836.592000", "150836.595000", "150836.597000", "150836.600000", "150836.602000", "150836.604000", "150836.607000", "150836.609000", "150836.611000", "150856.535000", "150856.538000", "150856.540000", "150856.542000", "150856.545000", "150856.547000", "150856.549000", "150856.552000", "150856.554000", "150856.556000", "150856.559000", "150856.561000", "150856.563000", "150856.566000", "150856.568000", "150856.570000", "150856.573000", "150856.575000", "150856.577000", "150856.580000", "150856.582000", "150856.584000", "150856.587000", "150856.589000", "150856.591000", "150856.594000", "150856.597000", "150856.600000", "150856.602000", "150856.605000", "150856.607000", "150856.610000", "150916.535000", "150916.538000", "150916.540000", "150916.543000", "150916.545000", "150916.547000", "150916.550000", "150916.552000", "150916.554000", "150916.557000", "150916.559000", "150916.562000", "150916.564000", "150916.568000", "150916.571000", "150916.573000", "150916.575000", "150916.578000", "150916.580000", "150916.582000", "150916.585000", "150916.587000", "150916.589000", "150916.592000", "150916.594000", "150916.596000", "150916.599000", "150916.601000", "150916.604000", "150916.606000", "150916.608000", "150916.611000", "150916.613000", "150936.535000", "150936.538000", "150936.540000", "150936.542000", "150936.545000", "150936.547000", "150936.550000", "150936.552000", "150936.554000", "150936.557000", "150936.559000", "150936.561000", "150936.564000", "150936.566000", "150936.568000", "150936.571000", "150936.573000", "150936.576000", "150936.578000", "150936.581000", "150936.583000", "150936.585000", "150936.588000", "150936.590000", "150936.592000", "150936.595000", "150936.597000", "150936.599000", "150936.602000", "150936.604000", "150936.606000", "150936.609000", "150936.611000", "150956.534000", "150956.537000", "150956.539000", "150956.541000", "150956.544000", "150956.546000", "150956.548000", "150956.551000", "150956.553000", "150956.555000", "150956.558000", "150956.560000", "150956.563000", "150956.565000", "150956.567000", "150956.570000", "150956.572000", "150956.575000", "150956.577000", "150956.579000", "150956.582000", "150956.584000", "150956.586000", "150956.589000", "150956.592000", "150956.594000", "150956.596000", "150956.599000", "150956.601000", "150956.604000", "150956.606000", "150956.609000", "150956.611000", "150959.830000", "150959.833000", "150959.836000", "150959.838000", "150959.841000"], "InstanceNumber": [1, 2, 3, 4, 5, 6, 7, 8, 9, 10, 11, 12, 13, 14, 15, 16, 17, 18, 19, 20, 21, 22, 23, 24, 25, 26, 27, 28, 29, 30, 31, 32, 33, 34, 35, 36, 37, 38, 39, 40, 41, 42, 43, 44, 45, 46, 47, 48, 49, 50, 51, 52, 53, 54, 55, 56, 57, 58, 59, 60, 61, 62, 63, 64, 65, 66, 67, 68, 69, 70, 71, 72, 73, 74, 75, 76, 77, 78, 79, 80, 81, 82, 83, 84, 85, 86, 87, 88, 89, 90, 91, 92, 93, 94, 95, 96, 97, 98, 99, 100, 101, 102, 103, 104, 105, 106, 107, 108, 109, 110, 111, 112, 113, 114, 115, 116, 117, 118, 119, 120, 121, 122, 123, 124, 125, 126, 127, 128, 129, 130, 131, 132, 133, 134, 135, 136, 137, 138, 139, 140, 141, 142, 143, 144, 145, 146, 147, 148, 149, 150, 151, 152, 153, 154, 155, 156, 157, 158, 159, 160, 161, 162, 163, 164, 165, 166, 167, 168, 169, 170, 171, 172, 173, 174, 175, 176, 177, 178, 179, 180, 181, 182, 183, 184, 185, 186, 187, 188, 189, 190, 191, 192, 193, 194, 195, 196, 197, 198, 199, 200, 201, 202, 203, 204, 205, 206, 207, 208, 209, 210, 211, 212, 213, 214, 215, 216, 217, 218, 219, 220, 221, 222, 223, 224, 225, 226, 227, 228, 229, 230, 231, 232, 233, 234, 235, 236, 237, 238, 239, 240, 241, 242, 243, 244, 245, 246, 247, 248, 249, 250, 251, 252], "LargestImagePixelValue": [523, 503, 514, 502, 495, 481, 511, 527, 509, 498, 498, 511, 509, 502, 504, 503, 505, 504, 503, 503, 504, 498, 491, 491, 497, 495, 493, 491, 493, 491, 490, 488, 490, 488, 496, 496, 493, 495, 500, 497, 525, 499, 495, 489, 487, 490, 489, 490, 493, 492, 493, 493, 492, 492, 498, 526, 512, 502, 497, 495, 496, 496, 495, 496, 497, 495, 497, 499, 497, 499, 495, 496, 493, 501, 495, 497, 497, 495, 496, 499, 499, 498, 495, 497, 493, 505, 500, 495, 495, 494, 493, 493, 495, 491, 493, 494, 496, 496, 493, 499, 499, 505, 501, 498, 492, 491, 500, 498, 495, 496, 495, 493, 494, 492, 496, 501, 499, 499, 505, 506, 494, 526, 464, 524, 508, 507, 592, 675, 533, 533, 487, 564, 504, 477, 463, 468, 465, 485, 489, 474, 474, 486, 494, 494, 488, 486, 496, 495, 500, 512, 498, 483, 489, 493, 492, 489, 489, 498, 498, 515, 499, 496, 488, 497, 505, 501, 499, 500, 512, 501, 499, 499, 498, 498, 500, 500, 500, 501, 498, 490, 498, 499, 521, 505, 513, 533, 532, 519, 513, 507, 511, 501, 501, 486, 504, 502, 505, 497, 510, 498, 514, 504, 512, 512, 506, 510, 521, 516, 515, 510, 512, 512, 511, 514, 506, 501, 502, 506, 507, 504, 503, 503, 507, 505, 506, 505, 522, 512, 508, 509, 508, 501, 516, 510, 505, 504, 505, 505, 506, 522, 509, 524, 513, 494, 507, 499, 511, 536, 495, 523, 501, 501], "WindowCenter": [313.0, 308.0, 306.0, 304.0, 304.0, 303.0, 302.0, 303.0, 302.0, 302.0, 301.0, 304.0, 304.0, 304.0, 303.0, 304.0, 304.0, 304.0, 305.0, 305.0, 304.0, 305.0, 304.0, 303.0, 304.0, 303.0, 303.0, 303.0, 303.0, 302.0, 302.0, 302.0, 303.0, 302.0, 303.0, 304.0, 305.0, 304.0, 304.0, 304.0, 305.0, 305.0, 305.0, 303.0, 303.0, 304.0, 303.0, 303.0, 303.0, 303.0, 304.0, 304.0, 305.0, 304.0, 307.0, 304.0, 304.0, 304.0, 304.0, 304.0, 304.0, 304.0, 304.0, 304.0, 304.0, 304.0, 304.0, 304.0, 304.0, 304.0, 304.0, 304.0, 303.0, 304.0, 303.0, 304.0, 304.0, 304.0, 304.0, 304.0, 304.0, 304.0, 304.0, 304.0, 304.0, 305.0, 304.0, 304.0, 304.0, 304.0, 304.0, 304.0, 303.0, 303.0, 303.0, 303.0, 304.0, 303.0, 303.0, 305.0, 304.0, 305.0, 305.0, 305.0, 304.0, 304.0, 304.0, 304.0, 304.0, 304.0, 304.0, 304.0, 304.0, 304.0, 305.0, 304.0, 305.0, 306.0, 307.0, 306.0, 305.0, 301.0, 287.0, 287.0, 305.0, 304.0, 308.0, 304.0, 304.0, 299.0, 295.0, 302.0, 302.0, 300.0, 298.0, 298.0, 297.0, 299.0, 301.0, 299.0, 301.0, 303.0, 307.0, 306.0, 302.0, 303.0, 302.0, 305.0, 304.0, 303.0, 305.0, 304.0, 302.0, 304.0, 301.0, 301.0, 302.0, 306.0, 303.0, 305.0, 304.0, 304.0, 301.0, 304.0, 305.0, 305.0, 302.0, 302.0, 303.0, 305.0, 302.0, 303.0, 303.0, 303.0, 304.0, 304.0, 303.0, 303.0, 303.0, 304.0, 304.0, 304.0, 302.0, 304.0, 301.0, 305.0, 305.0, 303.0, 303.0, 302.0, 304.0, 304.0, 303.0, 302.0, 303.0, 303.0, 304.0, 304.0, 304.0, 304.0, 303.0, 306.0, 305.0, 306.0, 304.0, 304.0, 305.0, 306.0, 303.0, 304.0, 305.0, 304.0, 304.0, 306.0, 306.0, 304.0, 304.0, 305.0, 304.0, 305.0, 304.0, 304.0, 305.0, 304.0, 306.0, 306.0, 306.0, 306.0, 304.0, 305.0, 305.0, 307.0, 307.0, 305.0, 304.0, 305.0, 304.0, 304.0, 305.0, 306.0, 305.0, 306.0, 306.0, 303.0, 304.0, 306.0, 293.0, 306.0, 303.0, 306.0, 305.0, 303.0], "WindowWidth": [675.0, 666.0, 661.0, 659.0, 659.0, 657.0, 654.0, 657.0, 654.0, 654.0, 653.0, 657.0, 658.0, 658.0, 656.0, 658.0, 657.0, 658.0, 659.0, 659.0, 657.0, 660.0, 658.0, 657.0, 657.0, 657.0, 656.0, 655.0, 655.0, 654.0, 655.0, 654.0, 655.0, 655.0, 656.0, 658.0, 659.0, 658.0, 658.0, 658.0, 659.0, 659.0, 660.0, 656.0, 656.0, 657.0, 656.0, 656.0, 656.0, 656.0, 657.0, 657.0, 659.0, 658.0, 663.0, 659.0, 658.0, 657.0, 657.0, 658.0, 658.0, 657.0, 658.0, 658.0, 658.0, 658.0, 658.0, 658.0, 658.0, 657.0, 658.0, 658.0, 657.0, 658.0, 657.0, 658.0, 658.0, 658.0, 658.0, 658.0, 657.0, 658.0, 658.0, 658.0, 657.0, 661.0, 658.0, 657.0, 658.0, 657.0, 657.0, 657.0, 657.0, 656.0, 656.0, 656.0, 658.0, 656.0, 656.0, 660.0, 658.0, 660.0, 659.0, 659.0, 659.0, 658.0, 658.0, 658.0, 657.0, 658.0, 658.0, 658.0, 657.0, 658.0, 659.0, 658.0, 659.0, 663.0, 663.0, 661.0, 660.0, 652.0, 626.0, 627.0, 661.0, 658.0, 667.0, 659.0, 658.0, 649.0, 641.0, 653.0, 655.0, 650.0, 646.0, 645.0, 645.0, 648.0, 652.0, 649.0, 651.0, 656.0, 664.0, 661.0, 654.0, 657.0, 655.0, 660.0, 658.0, 657.0, 660.0, 658.0, 655.0, 658.0, 654.0, 652.0, 655.0, 661.0, 656.0, 660.0, 658.0, 658.0, 654.0, 659.0, 660.0, 659.0, 654.0, 654.0, 655.0, 660.0, 655.0, 656.0, 656.0, 655.0, 658.0, 658.0, 656.0, 656.0, 656.0, 657.0, 658.0, 658.0, 655.0, 658.0, 653.0, 660.0, 660.0, 657.0, 656.0, 654.0, 657.0, 659.0, 657.0, 654.0, 656.0, 656.0, 658.0, 659.0, 658.0, 658.0, 656.0, 661.0, 659.0, 661.0, 659.0, 659.0, 659.0, 661.0, 657.0, 658.0, 659.0, 658.0, 659.0, 661.0, 662.0, 659.0, 659.0, 660.0, 659.0, 659.0, 658.0, 659.0, 660.0, 659.0, 662.0, 661.0, 662.0, 661.0, 659.0, 660.0, 660.0, 663.0, 664.0, 659.0, 658.0, 659.0, 658.0, 658.0, 659.0, 663.0, 660.0, 661.0, 662.0, 657.0, 659.0, 662.0, 638.0, 662.0, 656.0, 662.0, 661.0, 656.0]}, "slices": {}}, "EventTimestamp": "15-08-57"}