{"AcquisitionMatrixPE": 64, "AcquisitionNumber": 1, "AcquisitionTime": "10:19:4.735000", "BandwidthPerPixelPhaseEncode": 28.935, "BaseResolution": 64, "BodyPartExamined": "BRAIN", "CoilCombinationMethod": "Sum of Squares", "ConsistencyInfo": "N4_VE11E_LATEST_20181129", "ConversionSoftware": "dcm2niix", "ConversionSoftwareVersion": "v1.0.20230411", "DerivedVendorReportedEchoSpacing": 0.000540003, "DeviceSerialNumber": "166182", "DwellTime": 3.4e-06, "EchoTime": 0.032, "EchoTrainLength": 64, "EffectiveEchoSpacing": 0.000540003, "FlipAngle": 40, "HeudiconvVersion": "0.13.1", "ImageOrientationPatientDICOM": [0.997966, -0.044649, -0.045499, 0.0418272, 0.997249, -0.06119], "ImageOrientationText": "Tra>Cor(-3.4)>Sag(-2.8)", "ImageType": ["ORIGINAL", "PRIMARY", "M", "ND", "NORM", "MOSAIC"], "ImagingFrequency": 123.25615, "InPlanePhaseEncodingDirectionDICOM": "COL", "InstitutionAddress": "PEARSE STREET .,City,District,IE,D2", "InstitutionName": "TCIN", "InstitutionalDepartmentName": "MRI", "MRAcquisitionType": "2D", "MagneticFieldStrength": 3, "Manufacturer": "Siemens", "ManufacturersModelName": "Prisma", "Modality": "MR", "MultibandAccelerationFactor": 4, "NonlinearGradientCorrection": false, "PartialFourier": 1, "PatientPosition": "HFS", "PercentPhaseFOV": 100, "PercentSampling": 100, "PhaseEncodingDirection": "j-", "PhaseEncodingSteps": 64, "PhaseResolution": 1, "PixelBandwidth": 2300, "ProcedureStepDescription": "Rhodri^Head BOLD", "ProtocolName": "cmrr_mbep2d_Pictures_AP_RDS", "PulseSequenceDetails": "%SiemensSeq%\\ep2d_bold", "ReceiveCoilActiveElements": "HC2,4,6,7;SC", "ReceiveCoilName": "SpecialPurpose_4", "ReconMatrixPE": 64, "RefLinesPE": 12, "RepetitionTime": 0.61, "SAR": 0.378799, "ScanOptions": "FS", "ScanningSequence": "EP", "SequenceName": "*epfid2d1_64", "SequenceVariant": "SK", "SeriesDescription": "cmrr_mbep2d_Pictures_AP_RDS", "SeriesNumber": 10, "ShimSetting": [-3609, -7453, 3972, 683, 126, 546, 156, 214], "SliceThickness": 3, "SliceTiming": [0.2625, 0, 0.3275, 0.065, 0.3925, 0.13, 0.4575, 0.195, 0.5225, 0.2625, 0, 0.3275, 0.065, 0.3925, 0.13, 0.4575, 0.195, 0.5225, 0.2625, 0, 0.3275, 0.065, 0.3925, 0.13, 0.4575, 0.195, 0.5225, 0.2625, 0, 0.3275, 0.065, 0.3925, 0.13, 0.4575, 0.195, 0.5225], "SoftwareVersions": "syngo MR E11", "SpacingBetweenSlices": 3.3, "StationName": "AWP166182", "TaskName": "pictures", "TotalReadoutTime": 0.0340202, "TxRefAmp": 253.505, "dcmmeta_affine": [[-2.9938981533050537, 0.12548156082630157, -0.15874968469142914, 92.167236328125], [0.13394704461097717, 2.991748094558716, -0.19523616135120392, -99.24840545654297], [-0.1364971250295639, 0.18357007205486298, 3.2903923988342285, -88.32129669189453], [0.0, 0.0, 0.0, 1.0]], "dcmmeta_reorient_transform": [[0.0, -1.0, 0.0, 63.0], [1.0, 0.0, 0.0, 0.0], [0.0, 0.0, 1.0, 0.0], [0.0, 0.0, 0.0, 1.0]], "dcmmeta_shape": [64, 64, 36, 510], "dcmmeta_slice_dim": 2, "dcmmeta_version": 0.6, "global": {"const": {"AcquisitionMatrix": [64, 0, 0, 64], "AngioFlag": "N", "BitsAllocated": 16, "BitsStored": 12, "BodyPartExamined": "BRAIN", "Columns": 384, "EchoNumbers": 1, "EchoTime": 32.0, "EchoTrainLength": 64, "FlipAngle": 40.0, "HighBit": 11, "ImageOrientationPatient": [0.99796608279319, -0.0446490156843, -0.0454990438673, 0.04182718733997, 0.99724935063496, -0.0611900241655], "ImagePositionPatient": [-599.17334700235, -546.47988311864, -25.545631969333], "ImageType": ["ORIGINAL", "PRIMARY", "M", "ND", "NORM", "MOSAIC"], "ImagedNucleus": "1H", "ImagingFrequency": 123.25615, "InPlanePhaseEncodingDirection": "COL", "MRAcquisitionType": "2D", "MagneticFieldStrength": 3.0, "Manufacturer": "SIEMENS", "ManufacturerModelName": "Prisma", "Modality": "MR", "NumberOfAverages": 1.0, "NumberOfPhaseEncodingSteps": 64, "PercentPhaseFieldOfView": 100.0, "PercentSampling": 100.0, "PerformedProcedureStepStartTime": "094947.584000", "PhotometricInterpretation": "MONOCHROME2", "PixelBandwidth": 2300.0, "PixelRepresentation": 0, "PixelSpacing": [3.0, 3.0], "ProtocolName": "cmrr_mbep2d_Pictures_AP_RDS", "RepetitionTime": 610.0, "Rows": 384, "SAR": 0.37879877025488, "SamplesPerPixel": 1, "ScanOptions": "FS", "ScanningSequence": "EP", "SequenceName": "*epfid2d1_64", "SequenceVariant": "SK", "SeriesDescription": "cmrr_mbep2d_Pictures_AP_RDS", "SeriesNumber": 10, "SeriesTime": "101920.013000", "SliceLocation": -86.626171122901, "SliceThickness": 3.0, "SmallestImagePixelValue": 0, "SoftwareVersions": "syngo MR E11", "SpacingBetweenSlices": 3.3000000191245, "SpecificCharacterSet": "ISO_IR 100", "StudyID": "1", "StudyTime": "094947.182000", "TransmitCoilName": "Body", "VariableFlipAngleFlag": "N", "WindowCenterWidthExplanation": "Algo1"}, "slices": {}}, "time": {"samples": {"AcquisitionNumber": [1, 2, 3, 4, 5, 6, 7, 8, 9, 10, 11, 12, 13, 14, 15, 16, 17, 18, 19, 20, 21, 22, 23, 24, 25, 26, 27, 28, 29, 30, 31, 32, 33, 34, 35, 36, 37, 38, 39, 40, 41, 42, 43, 44, 45, 46, 47, 48, 49, 50, 51, 52, 53, 54, 55, 56, 57, 58, 59, 60, 61, 62, 63, 64, 65, 66, 67, 68, 69, 70, 71, 72, 73, 74, 75, 76, 77, 78, 79, 80, 81, 82, 83, 84, 85, 86, 87, 88, 89, 90, 91, 92, 93, 94, 95, 96, 97, 98, 99, 100, 101, 102, 103, 104, 105, 106, 107, 108, 109, 110, 111, 112, 113, 114, 115, 116, 117, 118, 119, 120, 121, 122, 123, 124, 125, 126, 127, 128, 129, 130, 131, 132, 133, 134, 135, 136, 137, 138, 139, 140, 141, 142, 143, 144, 145, 146, 147, 148, 149, 150, 151, 152, 153, 154, 155, 156, 157, 158, 159, 160, 161, 162, 163, 164, 165, 166, 167, 168, 169, 170, 171, 172, 173, 174, 175, 176, 177, 178, 179, 180, 181, 182, 183, 184, 185, 186, 187, 188, 189, 190, 191, 192, 193, 194, 195, 196, 197, 198, 199, 200, 201, 202, 203, 204, 205, 206, 207, 208, 209, 210, 211, 212, 213, 214, 215, 216, 217, 218, 219, 220, 221, 222, 223, 224, 225, 226, 227, 228, 229, 230, 231, 232, 233, 234, 235, 236, 237, 238, 239, 240, 241, 242, 243, 244, 245, 246, 247, 248, 249, 250, 251, 252, 253, 254, 255, 256, 257, 258, 259, 260, 261, 262, 263, 264, 265, 266, 267, 268, 269, 270, 271, 272, 273, 274, 275, 276, 277, 278, 279, 280, 281, 282, 283, 284, 285, 286, 287, 288, 289, 290, 291, 292, 293, 294, 295, 296, 297, 298, 299, 300, 301, 302, 303, 304, 305, 306, 307, 308, 309, 310, 311, 312, 313, 314, 315, 316, 317, 318, 319, 320, 321, 322, 323, 324, 325, 326, 327, 328, 329, 330, 331, 332, 333, 334, 335, 336, 337, 338, 339, 340, 341, 342, 343, 344, 345, 346, 347, 348, 349, 350, 351, 352, 353, 354, 355, 356, 357, 358, 359, 360, 361, 362, 363, 364, 365, 366, 367, 368, 369, 370, 371, 372, 373, 374, 375, 376, 377, 378, 379, 380, 381, 382, 383, 384, 385, 386, 387, 388, 389, 390, 391, 392, 393, 394, 395, 396, 397, 398, 399, 400, 401, 402, 403, 404, 405, 406, 407, 408, 409, 410, 411, 412, 413, 414, 415, 416, 417, 418, 419, 420, 421, 422, 423, 424, 425, 426, 427, 428, 429, 430, 431, 432, 433, 434, 435, 436, 437, 438, 439, 440, 441, 442, 443, 444, 445, 446, 447, 448, 449, 450, 451, 452, 453, 454, 455, 456, 457, 458, 459, 460, 461, 462, 463, 464, 465, 466, 467, 468, 469, 470, 471, 472, 473, 474, 475, 476, 477, 478, 479, 480, 481, 482, 483, 484, 485, 486, 487, 488, 489, 490, 491, 492, 493, 494, 495, 496, 497, 498, 499, 500, 501, 502, 503, 504, 505, 506, 507, 508, 509, 510], "AcquisitionTime": ["101904.735000", "101905.345000", "101905.955000", "101906.565000", "101907.175000", "101907.785000", "101908.395000", "101909.005000", "101909.615000", "101910.225000", "101910.835000", "101911.445000", "101912.055000", "101912.665000", "101913.275000", "101913.885000", "101914.495000", "101915.105000", "101915.715000", "101916.325000", "101916.935000", "101917.545000", "101918.155000", "101918.765000", "101919.375000", "101919.985000", "101920.595000", "101921.205000", "101921.815000", "101922.425000", "101923.035000", "101923.645000", "101924.255000", "101924.865000", "101925.475000", "101926.085000", "101926.695000", "101927.305000", "101927.915000", "101928.525000", "101929.135000", "101929.745000", "101930.355000", "101930.965000", "101931.575000", "101932.185000", "101932.795000", "101933.405000", "101934.015000", "101934.625000", "101935.235000", "101935.845000", "101936.455000", "101937.065000", "101937.675000", "101938.285000", "101938.895000", "101939.505000", "101940.115000", "101940.725000", "101941.335000", "101941.945000", "101942.555000", "101943.165000", "101943.775000", "101944.385000", "101944.995000", "101945.605000", "101946.215000", "101946.825000", "101947.435000", "101948.045000", "101948.655000", "101949.265000", "101949.875000", "101950.485000", "101951.095000", "101951.705000", "101952.315000", "101952.925000", "101953.535000", "101954.145000", "101954.755000", "101955.365000", "101955.975000", "101956.585000", "101957.195000", "101957.805000", "101958.415000", "101959.025000", "101959.635000", "102000.245000", "102000.855000", "102001.465000", "102002.075000", "102002.685000", "102003.295000", "102003.905000", "102004.515000", "102005.125000", "102005.735000", "102006.345000", "102006.955000", "102007.565000", "102008.175000", "102008.785000", "102009.395000", "102010.005000", "102010.615000", "102011.225000", "102011.835000", "102012.445000", "102013.055000", "102013.665000", "102014.275000", "102014.885000", "102015.495000", "102016.105000", "102016.715000", "102017.325000", "102017.935000", "102018.545000", "102019.155000", "102019.765000", "102020.375000", "102020.985000", "102021.595000", "102022.205000", "102022.815000", "102023.425000", "102024.035000", "102024.645000", "102025.255000", "102025.865000", "102026.475000", "102027.085000", "102027.695000", "102028.305000", "102028.915000", "102029.525000", "102030.135000", "102030.745000", "102031.355000", "102031.965000", "102032.575000", "102033.185000", "102033.795000", "102034.405000", "102035.015000", "102035.625000", "102036.235000", "102036.845000", "102037.455000", "102038.065000", "102038.675000", "102039.285000", "102039.895000", "102040.505000", "102041.115000", "102041.725000", "102042.335000", "102042.945000", "102043.555000", "102044.165000", "102044.775000", "102045.385000", "102045.995000", "102046.605000", "102047.215000", "102047.825000", "102048.435000", "102049.045000", "102049.655000", "102050.265000", "102050.875000", "102051.485000", "102052.095000", "102052.705000", "102053.315000", "102053.925000", "102054.535000", "102055.145000", "102055.755000", "102056.365000", "102056.975000", "102057.585000", "102058.195000", "102058.805000", "102059.415000", "102100.025000", "102100.635000", "102101.245000", "102101.855000", "102102.465000", "102103.075000", "102103.685000", "102104.295000", "102104.905000", "102105.515000", "102106.125000", "102106.735000", "102107.345000", "102107.955000", "102108.565000", "102109.175000", "102109.785000", "102110.395000", "102111.005000", "102111.615000", "102112.225000", "102112.835000", "102113.445000", "102114.055000", "102114.665000", "102115.275000", "102115.885000", "102116.495000", "102117.105000", "102117.715000", "102118.325000", "102118.935000", "102119.545000", "102120.155000", "102120.765000", "102121.375000", "102121.985000", "102122.595000", "102123.205000", "102123.815000", "102124.425000", "102125.035000", "102125.645000", "102126.255000", "102126.865000", "102127.475000", "102128.085000", "102128.695000", "102129.305000", "102129.915000", "102130.525000", "102131.135000", "102131.745000", "102132.355000", "102132.965000", "102133.575000", "102134.185000", "102134.795000", "102135.405000", "102136.015000", "102136.625000", "102137.235000", "102137.845000", "102138.455000", "102139.065000", "102139.675000", "102140.285000", "102140.895000", "102141.505000", "102142.115000", "102142.725000", "102143.335000", "102143.945000", "102144.555000", "102145.165000", "102145.775000", "102146.385000", "102146.995000", "102147.605000", "102148.215000", "102148.825000", "102149.435000", "102150.045000", "102150.655000", "102151.265000", "102151.875000", "102152.485000", "102153.095000", "102153.705000", "102154.315000", "102154.925000", "102155.535000", "102156.145000", "102156.755000", "102157.365000", "102157.975000", "102158.585000", "102159.195000", "102159.805000", "102200.415000", "102201.025000", "102201.635000", "102202.245000", "102202.855000", "102203.465000", "102204.075000", "102204.685000", "102205.295000", "102205.905000", "102206.515000", "102207.125000", "102207.735000", "102208.345000", "102208.955000", "102209.565000", "102210.175000", "102210.785000", "102211.395000", "102212.005000", "102212.615000", "102213.225000", "102213.835000", "102214.445000", "102215.055000", "102215.665000", "102216.275000", "102216.885000", "102217.495000", "102218.105000", "102218.715000", "102219.325000", "102219.935000", "102220.545000", "102221.155000", "102221.765000", "102222.375000", "102222.985000", "102223.595000", "102224.205000", "102224.815000", "102225.425000", "102226.035000", "102226.645000", "102227.255000", "102227.865000", "102228.475000", "102229.085000", "102229.695000", "102230.305000", "102230.915000", "102231.525000", "102232.135000", "102232.745000", "102233.355000", "102233.965000", "102234.575000", "102235.185000", "102235.795000", "102236.405000", "102237.015000", "102237.625000", "102238.235000", "102238.845000", "102239.455000", "102240.065000", "102240.675000", "102241.285000", "102241.895000", "102242.505000", "102243.115000", "102243.725000", "102244.335000", "102244.945000", "102245.555000", "102246.165000", "102246.775000", "102247.385000", "102247.995000", "102248.605000", "102249.215000", "102249.825000", "102250.435000", "102251.045000", "102251.655000", "102252.265000", "102252.875000", "102253.485000", "102254.095000", "102254.705000", "102255.315000", "102255.925000", "102256.535000", "102257.145000", "102257.755000", "102258.365000", "102258.975000", "102259.585000", "102300.195000", "102300.805000", "102301.415000", "102302.025000", "102302.635000", "102303.245000", "102303.855000", "102304.465000", "102305.075000", "102305.685000", "102306.295000", "102306.905000", "102307.515000", "102308.125000", "102308.735000", "102309.345000", "102309.955000", "102310.565000", "102311.175000", "102311.785000", "102312.395000", "102313.005000", "102313.615000", "102314.225000", "102314.835000", "102315.445000", "102316.055000", "102316.665000", "102317.275000", "102317.885000", "102318.495000", "102319.105000", "102319.715000", "102320.325000", "102320.935000", "102321.545000", "102322.155000", "102322.765000", "102323.375000", "102323.985000", "102324.595000", "102325.205000", "102325.815000", "102326.425000", "102327.035000", "102327.645000", "102328.255000", "102328.865000", "102329.475000", "102330.085000", "102330.695000", "102331.305000", "102331.915000", "102332.525000", "102333.135000", "102333.745000", "102334.355000", "102334.965000", "102335.575000", "102336.185000", "102336.795000", "102337.405000", "102338.015000", "102338.625000", "102339.235000", "102339.845000", "102340.455000", "102341.065000", "102341.675000", "102342.285000", "102342.895000", "102343.505000", "102344.115000", "102344.725000", "102345.335000", "102345.945000", "102346.555000", "102347.165000", "102347.775000", "102348.385000", "102348.995000", "102349.605000", "102350.215000", "102350.825000", "102351.435000", "102352.045000", "102352.655000", "102353.265000", "102353.875000", "102354.485000", "102355.095000", "102355.705000", "102356.315000", "102356.925000", "102357.535000", "102358.145000", "102358.755000", "102359.365000", "102359.975000", "102400.585000", "102401.195000", "102401.805000", "102402.415000", "102403.025000", "102403.635000", "102404.245000", "102404.855000", "102405.465000", "102406.075000", "102406.685000", "102407.295000", "102407.905000", "102408.515000", "102409.125000", "102409.735000", "102410.345000", "102410.955000", "102411.565000", "102412.175000", "102412.785000", "102413.395000", "102414.005000", "102414.615000", "102415.225000"], "ContentTime": ["101920.016000", "101920.020000", "101920.022000", "101920.024000", "101920.027000", "101920.038000", "101920.041000", "101920.043000", "101920.045000", "101920.048000", "101920.050000", "101920.054000", "101920.057000", "101920.059000", "101920.062000", "101920.064000", "101920.066000", "101920.069000", "101920.071000", "101920.073000", "101920.076000", "101920.078000", "101920.080000", "101940.012000", "101940.015000", "101940.017000", "101940.020000", "101940.022000", "101940.024000", "101940.027000", "101940.029000", "101940.032000", "101940.034000", "101940.036000", "101940.039000", "101940.041000", "101940.044000", "101940.046000", "101940.048000", "101940.051000", "101940.053000", "101940.055000", "101940.058000", "101940.060000", "101940.063000", "101940.065000", "101940.067000", "101940.070000", "101940.075000", "101940.077000", "101940.080000", "101940.082000", "101940.085000", "101940.087000", "101940.089000", "101940.092000", "102000.013000", "102000.015000", "102000.018000", "102000.020000", "102000.022000", "102000.025000", "102000.027000", "102000.029000", "102000.032000", "102000.034000", "102000.036000", "102000.039000", "102000.041000", "102000.044000", "102000.046000", "102000.048000", "102000.051000", "102000.053000", "102000.055000", "102000.058000", "102000.060000", "102000.063000", "102000.065000", "102000.067000", "102000.070000", "102000.073000", "102000.075000", "102000.078000", "102000.080000", "102000.083000", "102000.085000", "102000.087000", "102000.090000", "102020.011000", "102020.014000", "102020.016000", "102020.018000", "102020.021000", "102020.023000", "102020.026000", "102020.028000", "102020.030000", "102020.033000", "102020.035000", "102020.037000", "102020.040000", "102020.042000", "102020.044000", "102020.047000", "102020.049000", "102020.051000", "102020.054000", "102020.056000", "102020.058000", "102020.061000", "102020.063000", "102020.065000", "102020.068000", "102020.070000", "102020.072000", "102020.075000", "102020.077000", "102020.079000", "102020.082000", "102020.084000", "102020.087000", "102040.011000", "102040.014000", "102040.016000", "102040.045000", "102040.047000", "102040.049000", "102040.052000", "102040.054000", "102040.056000", "102040.059000", "102040.061000", "102040.064000", "102040.066000", "102040.068000", "102040.071000", "102040.073000", "102040.076000", "102040.078000", "102040.080000", "102040.083000", "102040.085000", "102040.087000", "102040.090000", "102040.092000", "102040.094000", "102040.097000", "102040.099000", "102040.102000", "102040.104000", "102040.107000", "102040.109000", "102040.112000", "102100.011000", "102100.014000", "102100.016000", "102100.018000", "102100.021000", "102100.023000", "102100.026000", "102100.028000", "102100.030000", "102100.033000", "102100.035000", "102100.037000", "102100.040000", "102100.042000", "102100.044000", "102100.047000", "102100.049000", "102100.052000", "102100.054000", "102100.056000", "102100.059000", "102100.061000", "102100.064000", "102100.066000", "102100.068000", "102100.071000", "102100.073000", "102100.076000", "102100.079000", "102100.081000", "102100.083000", "102100.086000", "102100.088000", "102120.011000", "102120.014000", "102120.016000", "102120.019000", "102120.021000", "102120.023000", "102120.026000", "102120.028000", "102120.030000", "102120.033000", "102120.035000", "102120.038000", "102120.040000", "102120.042000", "102120.045000", "102120.047000", "102120.049000", "102120.052000", "102120.054000", "102120.057000", "102120.059000", "102120.062000", "102120.064000", "102120.066000", "102120.069000", "102120.071000", "102120.073000", "102120.076000", "102120.078000", "102120.081000", "102120.083000", "102120.085000", "102120.088000", "102140.012000", "102140.015000", "102140.017000", "102140.020000", "102140.022000", "102140.024000", "102140.027000", "102140.029000", "102140.031000", "102140.034000", "102140.036000", "102140.039000", "102140.041000", "102140.043000", "102140.046000", "102140.048000", "102140.050000", "102140.053000", "102140.055000", "102140.058000", "102140.060000", "102140.062000", "102140.065000", "102140.067000", "102140.069000", "102140.072000", "102140.088000", "102140.091000", "102140.093000", "102140.095000", "102140.098000", "102140.100000", "102140.102000", "102200.012000", "102200.015000", "102200.017000", "102200.020000", "102200.022000", "102200.025000", "102200.027000", "102200.029000", "102200.032000", "102200.034000", "102200.036000", "102200.039000", "102200.041000", "102200.044000", "102200.046000", "102200.048000", "102200.051000", "102200.053000", "102200.055000", "102200.058000", "102200.060000", "102200.063000", "102200.065000", "102200.067000", "102200.070000", "102200.072000", "102200.074000", "102200.077000", "102200.079000", "102200.081000", "102200.084000", "102200.086000", "102220.013000", "102220.015000", "102220.018000", "102220.020000", "102220.022000", "102220.025000", "102220.027000", "102220.029000", "102220.032000", "102220.034000", "102220.037000", "102220.039000", "102220.042000", "102220.044000", "102220.046000", "102220.049000", "102220.051000", "102220.054000", "102220.056000", "102220.058000", "102220.061000", "102220.063000", "102220.065000", "102220.068000", "102220.070000", "102220.073000", "102220.075000", "102220.077000", "102220.080000", "102220.082000", "102220.084000", "102220.087000", "102220.089000", "102240.011000", "102240.014000", "102240.016000", "102240.019000", "102240.021000", "102240.023000", "102240.026000", "102240.028000", "102240.031000", "102240.033000", "102240.035000", "102240.038000", "102240.040000", "102240.042000", "102240.045000", "102240.047000", "102240.050000", "102240.052000", "102240.054000", "102240.057000", "102240.059000", "102240.061000", "102240.064000", "102240.066000", "102240.069000", "102240.071000", "102240.073000", "102240.076000", "102240.078000", "102240.080000", "102240.083000", "102240.085000", "102240.087000", "102300.011000", "102300.014000", "102300.016000", "102300.019000", "102300.021000", "102300.023000", "102300.026000", "102300.028000", "102300.031000", "102300.033000", "102300.035000", "102300.038000", "102300.040000", "102300.042000", "102300.045000", "102300.047000", "102300.050000", "102300.052000", "102300.054000", "102300.057000", "102300.059000", "102300.061000", "102300.064000", "102300.066000", "102300.068000", "102300.071000", "102300.073000", "102300.076000", "102300.078000", "102300.080000", "102300.083000", "102300.085000", "102300.087000", "102320.011000", "102320.014000", "102320.016000", "102320.019000", "102320.021000", "102320.023000", "102320.026000", "102320.028000", "102320.030000", "102320.033000", "102320.035000", "102320.038000", "102320.040000", "102320.042000", "102320.045000", "102320.047000", "102320.050000", "102320.052000", "102320.054000", "102320.057000", "102320.059000", "102320.062000", "102320.064000", "102320.066000", "102320.069000", "102320.071000", "102320.073000", "102320.076000", "102320.078000", "102320.081000", "102320.083000", "102320.085000", "102320.088000", "102340.011000", "102340.014000", "102340.016000", "102340.019000", "102340.021000", "102340.023000", "102340.026000", "102340.028000", "102340.031000", "102340.033000", "102340.035000", "102340.038000", "102340.040000", "102340.043000", "102340.045000", "102340.048000", "102340.050000", "102340.053000", "102340.055000", "102340.058000", "102340.060000", "102340.063000", "102340.065000", "102340.067000", "102340.070000", "102340.072000", "102340.074000", "102340.077000", "102340.079000", "102340.082000", "102340.084000", "102340.086000", "102400.012000", "102400.015000", "102400.017000", "102400.020000", "102400.022000", "102400.033000", "102400.035000", "102400.038000", "102400.040000", "102400.043000", "102400.045000", "102400.047000", "102400.050000", "102400.052000", "102400.054000", "102400.057000", "102400.059000", "102400.062000", "102400.064000", "102400.066000", "102400.069000", "102400.071000", "102400.074000", "102400.076000", "102400.079000", "102400.081000", "102400.083000", "102400.086000", "102400.088000", "102400.091000", "102400.093000", "102400.095000", "102400.098000", "102416.627000", "102416.630000", "102416.633000", "102416.637000", "102416.640000", "102416.642000", "102416.644000", "102416.647000", "102416.649000", "102416.652000", "102416.667000", "102416.670000", "102416.673000", "102416.676000", "102416.680000", "102416.682000", "102416.685000", "102416.687000", "102416.690000", "102416.692000", "102416.695000", "102416.697000", "102416.700000", "102416.703000", "102416.706000", "102416.708000", "102416.711000", "102416.713000"], "InstanceCreationTime": ["101920.016000", "101920.020000", "101920.022000", "101920.024000", "101920.027000", "101920.038000", "101920.041000", "101920.043000", "101920.045000", "101920.048000", "101920.050000", "101920.054000", "101920.057000", "101920.059000", "101920.062000", "101920.064000", "101920.066000", "101920.069000", "101920.071000", "101920.073000", "101920.076000", "101920.078000", "101920.080000", "101940.012000", "101940.015000", "101940.017000", "101940.020000", "101940.022000", "101940.024000", "101940.027000", "101940.029000", "101940.032000", "101940.034000", "101940.036000", "101940.039000", "101940.041000", "101940.044000", "101940.046000", "101940.048000", "101940.051000", "101940.053000", "101940.055000", "101940.058000", "101940.060000", "101940.063000", "101940.065000", "101940.067000", "101940.070000", "101940.075000", "101940.077000", "101940.080000", "101940.082000", "101940.085000", "101940.087000", "101940.089000", "101940.092000", "102000.013000", "102000.015000", "102000.018000", "102000.020000", "102000.022000", "102000.025000", "102000.027000", "102000.029000", "102000.032000", "102000.034000", "102000.036000", "102000.039000", "102000.041000", "102000.044000", "102000.046000", "102000.048000", "102000.051000", "102000.053000", "102000.055000", "102000.058000", "102000.060000", "102000.063000", "102000.065000", "102000.067000", "102000.070000", "102000.073000", "102000.075000", "102000.078000", "102000.080000", "102000.083000", "102000.085000", "102000.087000", "102000.090000", "102020.011000", "102020.014000", "102020.016000", "102020.018000", "102020.021000", "102020.023000", "102020.026000", "102020.028000", "102020.030000", "102020.033000", "102020.035000", "102020.037000", "102020.040000", "102020.042000", "102020.044000", "102020.047000", "102020.049000", "102020.051000", "102020.054000", "102020.056000", "102020.058000", "102020.061000", "102020.063000", "102020.065000", "102020.068000", "102020.070000", "102020.072000", "102020.075000", "102020.077000", "102020.079000", "102020.082000", "102020.084000", "102020.087000", "102040.011000", "102040.014000", "102040.016000", "102040.045000", "102040.047000", "102040.049000", "102040.052000", "102040.054000", "102040.056000", "102040.059000", "102040.061000", "102040.064000", "102040.066000", "102040.068000", "102040.071000", "102040.073000", "102040.076000", "102040.078000", "102040.080000", "102040.083000", "102040.085000", "102040.087000", "102040.090000", "102040.092000", "102040.094000", "102040.097000", "102040.099000", "102040.102000", "102040.104000", "102040.107000", "102040.109000", "102040.112000", "102100.011000", "102100.014000", "102100.016000", "102100.018000", "102100.021000", "102100.023000", "102100.026000", "102100.028000", "102100.030000", "102100.033000", "102100.035000", "102100.037000", "102100.040000", "102100.042000", "102100.044000", "102100.047000", "102100.049000", "102100.052000", "102100.054000", "102100.056000", "102100.059000", "102100.061000", "102100.064000", "102100.066000", "102100.068000", "102100.071000", "102100.073000", "102100.076000", "102100.079000", "102100.081000", "102100.083000", "102100.086000", "102100.088000", "102120.011000", "102120.014000", "102120.016000", "102120.019000", "102120.021000", "102120.023000", "102120.026000", "102120.028000", "102120.030000", "102120.033000", "102120.035000", "102120.038000", "102120.040000", "102120.042000", "102120.045000", "102120.047000", "102120.049000", "102120.052000", "102120.054000", "102120.057000", "102120.059000", "102120.062000", "102120.064000", "102120.066000", "102120.069000", "102120.071000", "102120.073000", "102120.076000", "102120.078000", "102120.081000", "102120.083000", "102120.085000", "102120.088000", "102140.012000", "102140.015000", "102140.017000", "102140.020000", "102140.022000", "102140.024000", "102140.027000", "102140.029000", "102140.031000", "102140.034000", "102140.036000", "102140.039000", "102140.041000", "102140.043000", "102140.046000", "102140.048000", "102140.050000", "102140.053000", "102140.055000", "102140.058000", "102140.060000", "102140.062000", "102140.065000", "102140.067000", "102140.069000", "102140.072000", "102140.088000", "102140.091000", "102140.093000", "102140.095000", "102140.098000", "102140.100000", "102140.102000", "102200.012000", "102200.015000", "102200.017000", "102200.020000", "102200.022000", "102200.025000", "102200.027000", "102200.029000", "102200.032000", "102200.034000", "102200.036000", "102200.039000", "102200.041000", "102200.044000", "102200.046000", "102200.048000", "102200.051000", "102200.053000", "102200.055000", "102200.058000", "102200.060000", "102200.063000", "102200.065000", "102200.067000", "102200.070000", "102200.072000", "102200.074000", "102200.077000", "102200.079000", "102200.081000", "102200.084000", "102200.086000", "102220.013000", "102220.015000", "102220.018000", "102220.020000", "102220.022000", "102220.025000", "102220.027000", "102220.029000", "102220.032000", "102220.034000", "102220.037000", "102220.039000", "102220.042000", "102220.044000", "102220.046000", "102220.049000", "102220.051000", "102220.054000", "102220.056000", "102220.058000", "102220.061000", "102220.063000", "102220.065000", "102220.068000", "102220.070000", "102220.073000", "102220.075000", "102220.077000", "102220.080000", "102220.082000", "102220.084000", "102220.087000", "102220.089000", "102240.011000", "102240.01400