{"AcquisitionMatrixPE": 64, "AcquisitionNumber": 1, "AcquisitionTime": "12:45:41.705000", "BandwidthPerPixelPhaseEncode": 28.935, "BaseResolution": 64, "BodyPartExamined": "BRAIN", "CoilString": "HC2_4_6_7", "ConsistencyInfo": "N4_VE11E_LATEST_20181129", "ConversionSoftware": "dcm2niix", "ConversionSoftwareVersion": "v1.0.20190902", "DerivedVendorReportedEchoSpacing": 0.000540003, "DeviceSerialNumber": "166182", "DwellTime": 3.4e-06, "EchoTime": 0.032, "EchoTrainLength": 64, "EffectiveEchoSpacing": 0.000540003, "FlipAngle": 40, "ImageOrientationPatientDICOM": [0.991633, -0.128729, 0.00963886, 0.124921, 0.938114, -0.323013], "ImageType": ["ORIGINAL", "PRIMARY", "M", "ND", "NORM", "MOSAIC"], "ImagingFrequency": 123.256, "InPlanePhaseEncodingDirectionDICOM": "COL", "InstitutionAddress": "PEARSE_STREET_._City_District_IE_D2", "InstitutionName": "TCIN", "InstitutionalDepartmentName": "MRI", "MRAcquisitionType": "2D", "MagneticFieldStrength": 3, "Manufacturer": "Siemens", "ManufacturersModelName": "Prisma", "Modality": "MR", "MultibandAccelerationFactor": 4, "PartialFourier": 1, "PatientPosition": "HFS", "PercentPhaseFOV": 100, "PhaseEncodingDirection": "j-", "PhaseEncodingSteps": 64, "PhaseResolution": 1, "PixelBandwidth": 2300, "ProcedureStepDescription": "Rhodri_Head_BOLD", "ProtocolName": "cmrr_mbep2d_Pictures_AP_RDS", "PulseSequenceDetails": "%SiemensSeq%_ep2d_bold", "ReceiveCoilActiveElements": "HC2,4,6,7", "ReceiveCoilName": "HeadNeck_64", "ReconMatrixPE": 64, "RefLinesPE": 12, "RepetitionTime": 0.61, "SAR": 0.235776, "ScanOptions": "FS", "ScanningSequence": "EP", "SequenceName": "_epfid2d1_64", "SequenceVariant": "SK", "SeriesDescription": "cmrr_mbep2d_Pictures_AP_RDS", "SeriesNumber": 10, "ShimSetting": [-3652, -7320, 3933, 287, 31, 314, -356, -1], "SliceThickness": 3, "SliceTiming": [0.2625, 0, 0.3275, 0.0675, 0.395, 0.1325, 0.46, 0.1975, 0.525, 0.2625, 0, 0.3275, 0.0675, 0.395, 0.1325, 0.46, 0.1975, 0.525, 0.2625, 0, 0.3275, 0.0675, 0.395, 0.1325, 0.46, 0.1975, 0.525, 0.2625, 0, 0.3275, 0.0675, 0.395, 0.1325, 0.46, 0.1975, 0.525], "SoftwareVersions": "syngo_MR_E11", "SpacingBetweenSlices": 3.3, "StationName": "AWP166182", "TaskName": "pictures", "TotalReadoutTime": 0.0340202, "TxRefAmp": 256.733, "dcmmeta_affine": [[-2.9748990535736084, 0.37476226687431335, -0.10737740993499756, 85.8563003540039], [0.38618576526641846, 2.8143415451049805, -1.060996413230896, -92.71720123291016], [0.028916578739881516, 0.9690378308296204, 3.1229403018951416, -133.07814025878906], [0.0, 0.0, 0.0, 1.0]], "dcmmeta_reorient_transform": [[0.0, -1.0, 0.0, 63.0], [1.0, 0.0, 0.0, 0.0], [0.0, 0.0, 1.0, 0.0], [0.0, 0.0, 0.0, 1.0]], "dcmmeta_shape": [64, 64, 36, 510], "dcmmeta_slice_dim": 2, "dcmmeta_version": 0.6, "global": {"const": {"AcquisitionMatrix": [64, 0, 0, 64], "AngioFlag": "N", "BitsAllocated": 16, "BitsStored": 12, "BodyPartExamined": "BRAIN", "Columns": 384, "EchoNumbers": 1, "EchoTime": 32.0, "EchoTrainLength": 64, "FlipAngle": 40.0, "HighBit": 11, "ImageOrientationPatient": [0.99163301850614, -0.1287285865319, 0.00963885978226, 0.12492075691767, 0.93811388125548, -0.3230126162968], "ImagePositionPatient": [-645.41213695758, -473.09126759038, 78.390651000891], "ImageType": ["ORIGINAL", "PRIMARY", "M", "ND", "NORM", "MOSAIC"], "ImagedNucleus": "1H", "ImagingFrequency": 123.256388, "InPlanePhaseEncodingDirection": "COL", "MRAcquisitionType": "2D", "MagneticFieldStrength": 3.0, "Manufacturer": "SIEMENS", "ManufacturerModelName": "Prisma", "Modality": "MR", "NumberOfAverages": 1.0, "NumberOfPhaseEncodingSteps": 64, "PercentPhaseFieldOfView": 100.0, "PercentSampling": 100.0, "PerformedProcedureStepStartTime": "122036.941000", "PhotometricInterpretation": "MONOCHROME2", "PixelBandwidth": 2300.0, "PixelRepresentation": 0, "PixelSpacing": [3.0, 3.0], "ProtocolName": "cmrr_mbep2d_Pictures_AP_RDS", "RepetitionTime": 610.0, "Rows": 384, "SAR": 0.23577605899981, "SamplesPerPixel": 1, "ScanOptions": "FS", "ScanningSequence": "EP", "SequenceName": "*epfid2d1_64", "SequenceVariant": "SK", "SeriesDescription": "cmrr_mbep2d_Pictures_AP_RDS", "SeriesNumber": 10, "SeriesTime": "124600.995000", "SliceLocation": -98.92166655354, "SliceThickness": 3.0, "SmallestImagePixelValue": 0, "SoftwareVersions": "syngo MR E11", "SpacingBetweenSlices": 3.2999999434303, "SpecificCharacterSet": "ISO_IR 100", "StudyID": "1", "StudyTime": "122036.833000", "TransmitCoilName": "Body", "VariableFlipAngleFlag": "N", "WindowCenterWidthExplanation": "Algo1"}, "slices": {}}, "time": {"samples": {"AcquisitionNumber": [1, 2, 3, 4, 5, 6, 7, 8, 9, 10, 11, 12, 13, 14, 15, 16, 17, 18, 19, 20, 21, 22, 23, 24, 25, 26, 27, 28, 29, 30, 31, 32, 33, 34, 35, 36, 37, 38, 39, 40, 41, 42, 43, 44, 45, 46, 47, 48, 49, 50, 51, 52, 53, 54, 55, 56, 57, 58, 59, 60, 61, 62, 63, 64, 65, 66, 67, 68, 69, 70, 71, 72, 73, 74, 75, 76, 77, 78, 79, 80, 81, 82, 83, 84, 85, 86, 87, 88, 89, 90, 91, 92, 93, 94, 95, 96, 97, 98, 99, 100, 101, 102, 103, 104, 105, 106, 107, 108, 109, 110, 111, 112, 113, 114, 115, 116, 117, 118, 119, 120, 121, 122, 123, 124, 125, 126, 127, 128, 129, 130, 131, 132, 133, 134, 135, 136, 137, 138, 139, 140, 141, 142, 143, 144, 145, 146, 147, 148, 149, 150, 151, 152, 153, 154, 155, 156, 157, 158, 159, 160, 161, 162, 163, 164, 165, 166, 167, 168, 169, 170, 171, 172, 173, 174, 175, 176, 177, 178, 179, 180, 181, 182, 183, 184, 185, 186, 187, 188, 189, 190, 191, 192, 193, 194, 195, 196, 197, 198, 199, 200, 201, 202, 203, 204, 205, 206, 207, 208, 209, 210, 211, 212, 213, 214, 215, 216, 217, 218, 219, 220, 221, 222, 223, 224, 225, 226, 227, 228, 229, 230, 231, 232, 233, 234, 235, 236, 237, 238, 239, 240, 241, 242, 243, 244, 245, 246, 247, 248, 249, 250, 251, 252, 253, 254, 255, 256, 257, 258, 259, 260, 261, 262, 263, 264, 265, 266, 267, 268, 269, 270, 271, 272, 273, 274, 275, 276, 277, 278, 279, 280, 281, 282, 283, 284, 285, 286, 287, 288, 289, 290, 291, 292, 293, 294, 295, 296, 297, 298, 299, 300, 301, 302, 303, 304, 305, 306, 307, 308, 309, 310, 311, 312, 313, 314, 315, 316, 317, 318, 319, 320, 321, 322, 323, 324, 325, 326, 327, 328, 329, 330, 331, 332, 333, 334, 335, 336, 337, 338, 339, 340, 341, 342, 343, 344, 345, 346, 347, 348, 349, 350, 351, 352, 353, 354, 355, 356, 357, 358, 359, 360, 361, 362, 363, 364, 365, 366, 367, 368, 369, 370, 371, 372, 373, 374, 375, 376, 377, 378, 379, 380, 381, 382, 383, 384, 385, 386, 387, 388, 389, 390, 391, 392, 393, 394, 395, 396, 397, 398, 399, 400, 401, 402, 403, 404, 405, 406, 407, 408, 409, 410, 411, 412, 413, 414, 415, 416, 417, 418, 419, 420, 421, 422, 423, 424, 425, 426, 427, 428, 429, 430, 431, 432, 433, 434, 435, 436, 437, 438, 439, 440, 441, 442, 443, 444, 445, 446, 447, 448, 449, 450, 451, 452, 453, 454, 455, 456, 457, 458, 459, 460, 461, 462, 463, 464, 465, 466, 467, 468, 469, 470, 471, 472, 473, 474, 475, 476, 477, 478, 479, 480, 481, 482, 483, 484, 485, 486, 487, 488, 489, 490, 491, 492, 493, 494, 495, 496, 497, 498, 499, 500, 501, 502, 503, 504, 505, 506, 507, 508, 509, 510], "AcquisitionTime": ["124541.705000", "124542.315000", "124542.925000", "124543.535000", "124544.145000", "124544.755000", "124545.365000", "124545.975000", "124546.585000", "124547.195000", "124547.805000", "124548.415000", "124549.025000", "124549.635000", "124550.245000", "124550.855000", "124551.465000", "124552.075000", "124552.685000", "124553.295000", "124553.905000", "124554.515000", "124555.125000", "124555.735000", "124556.345000", "124556.955000", "124557.565000", "124558.175000", "124558.785000", "124559.395000", "124600.005000", "124600.615000", "124601.225000", "124601.835000", "124602.445000", "124603.055000", "124603.665000", "124604.275000", "124604.885000", "124605.495000", "124606.105000", "124606.715000", "124607.325000", "124607.935000", "124608.545000", "124609.155000", "124609.765000", "124610.375000", "124610.985000", "124611.595000", "124612.205000", "124612.815000", "124613.425000", "124614.035000", "124614.645000", "124615.255000", "124615.865000", "124616.475000", "124617.085000", "124617.695000", "124618.305000", "124618.915000", "124619.525000", "124620.135000", "124620.745000", "124621.355000", "124621.965000", "124622.575000", "124623.185000", "124623.795000", "124624.405000", "124625.015000", "124625.625000", "124626.235000", "124626.845000", "124627.455000", "124628.065000", "124628.675000", "124629.285000", "124629.895000", "124630.505000", "124631.115000", "124631.725000", "124632.335000", "124632.945000", "124633.555000", "124634.165000", "124634.775000", "124635.385000", "124635.995000", "124636.605000", "124637.215000", "124637.825000", "124638.435000", "124639.045000", "124639.655000", "124640.265000", "124640.875000", "124641.485000", "124642.095000", "124642.705000", "124643.315000", "124643.925000", "124644.535000", "124645.145000", "124645.755000", "124646.365000", "124646.975000", "124647.585000", "124648.195000", "124648.805000", "124649.415000", "124650.025000", "124650.635000", "124651.245000", "124651.855000", "124652.465000", "124653.075000", "124653.685000", "124654.295000", "124654.905000", "124655.515000", "124656.125000", "124656.735000", "124657.345000", "124657.955000", "124658.565000", "124659.175000", "124659.785000", "124700.395000", "124701.005000", "124701.615000", "124702.225000", "124702.835000", "124703.445000", "124704.055000", "124704.665000", "124705.275000", "124705.885000", "124706.495000", "124707.105000", "124707.715000", "124708.325000", "124708.935000", "124709.545000", "124710.155000", "124710.765000", "124711.375000", "124711.985000", "124712.595000", "124713.205000", "124713.815000", "124714.425000", "124715.035000", "124715.645000", "124716.255000", "124716.865000", "124717.475000", "124718.085000", "124718.695000", "124719.305000", "124719.915000", "124720.525000", "124721.135000", "124721.745000", "124722.355000", "124722.965000", "124723.575000", "124724.185000", "124724.795000", "124725.405000", "124726.015000", "124726.625000", "124727.235000", "124727.845000", "124728.455000", "124729.065000", "124729.675000", "124730.285000", "124730.895000", "124731.505000", "124732.115000", "124732.725000", "124733.335000", "124733.945000", "124734.555000", "124735.165000", "124735.775000", "124736.385000", "124736.995000", "124737.605000", "124738.215000", "124738.825000", "124739.435000", "124740.045000", "124740.655000", "124741.265000", "124741.875000", "124742.485000", "124743.095000", "124743.705000", "124744.315000", "124744.925000", "124745.535000", "124746.145000", "124746.755000", "124747.365000", "124747.975000", "124748.585000", "124749.195000", "124749.805000", "124750.415000", "124751.025000", "124751.635000", "124752.245000", "124752.855000", "124753.465000", "124754.075000", "124754.685000", "124755.295000", "124755.905000", "124756.515000", "124757.125000", "124757.735000", "124758.345000", "124758.955000", "124759.565000", "124800.175000", "124800.785000", "124801.395000", "124802.005000", "124802.615000", "124803.225000", "124803.835000", "124804.445000", "124805.055000", "124805.665000", "124806.275000", "124806.885000", "124807.495000", "124808.105000", "124808.715000", "124809.325000", "124809.935000", "124810.545000", "124811.155000", "124811.765000", "124812.375000", "124812.985000", "124813.595000", "124814.205000", "124814.815000", "124815.425000", "124816.035000", "124816.645000", "124817.255000", "124817.865000", "124818.475000", "124819.085000", "124819.695000", "124820.305000", "124820.915000", "124821.525000", "124822.135000", "124822.745000", "124823.355000", "124823.965000", "124824.575000", "124825.185000", "124825.795000", "124826.405000", "124827.015000", "124827.625000", "124828.235000", "124828.845000", "124829.455000", "124830.065000", "124830.675000", "124831.285000", "124831.895000", "124832.505000", "124833.115000", "124833.725000", "124834.335000", "124834.945000", "124835.555000", "124836.165000", "124836.775000", "124837.385000", "124837.995000", "124838.605000", "124839.215000", "124839.825000", "124840.435000", "124841.045000", "124841.655000", "124842.265000", "124842.875000", "124843.485000", "124844.095000", "124844.705000", "124845.315000", "124845.925000", "124846.535000", "124847.145000", "124847.755000", "124848.365000", "124848.975000", "124849.585000", "124850.195000", "124850.805000", "124851.415000", "124852.025000", "124852.635000", "124853.245000", "124853.855000", "124854.465000", "124855.075000", "124855.685000", "124856.295000", "124856.905000", "124857.515000", "124858.125000", "124858.735000", "124859.345000", "124859.955000", "124900.565000", "124901.175000", "124901.785000", "124902.395000", "124903.005000", "124903.615000", "124904.225000", "124904.835000", "124905.445000", "124906.055000", "124906.665000", "124907.275000", "124907.885000", "124908.495000", "124909.105000", "124909.715000", "124910.325000", "124910.935000", "124911.545000", "124912.155000", "124912.765000", "124913.375000", "124913.985000", "124914.595000", "124915.205000", "124915.815000", "124916.425000", "124917.035000", "124917.645000", "124918.255000", "124918.865000", "124919.475000", "124920.085000", "124920.695000", "124921.305000", "124921.915000", "124922.525000", "124923.135000", "124923.745000", "124924.355000", "124924.965000", "124925.575000", "124926.185000", "124926.795000", "124927.405000", "124928.015000", "124928.625000", "124929.235000", "124929.845000", "124930.455000", "124931.065000", "124931.675000", "124932.285000", "124932.895000", "124933.505000", "124934.115000", "124934.725000", "124935.335000", "124935.945000", "124936.555000", "124937.165000", "124937.775000", "124938.385000", "124938.995000", "124939.605000", "124940.215000", "124940.825000", "124941.435000", "124942.045000", "124942.655000", "124943.265000", "124943.875000", "124944.485000", "124945.095000", "124945.705000", "124946.315000", "124946.925000", "124947.535000", "124948.145000", "124948.755000", "124949.365000", "124949.975000", "124950.585000", "124951.195000", "124951.805000", "124952.415000", "124953.025000", "124953.635000", "124954.245000", "124954.855000", "124955.465000", "124956.075000", "124956.685000", "124957.295000", "124957.905000", "124958.515000", "124959.125000", "124959.735000", "125000.345000", "125000.955000", "125001.565000", "125002.175000", "125002.785000", "125003.395000", "125004.005000", "125004.615000", "125005.225000", "125005.835000", "125006.445000", "125007.055000", "125007.665000", "125008.275000", "125008.885000", "125009.495000", "125010.105000", "125010.715000", "125011.325000", "125011.935000", "125012.545000", "125013.155000", "125013.765000", "125014.375000", "125014.985000", "125015.595000", "125016.205000", "125016.815000", "125017.425000", "125018.035000", "125018.645000", "125019.255000", "125019.865000", "125020.475000", "125021.085000", "125021.695000", "125022.305000", "125022.915000", "125023.525000", "125024.135000", "125024.745000", "125025.355000", "125025.965000", "125026.575000", "125027.185000", "125027.795000", "125028.405000", "125029.015000", "125029.625000", "125030.235000", "125030.845000", "125031.455000", "125032.065000", "125032.675000", "125033.285000", "125033.895000", "125034.505000", "125035.115000", "125035.725000", "125036.335000", "125036.945000", "125037.555000", "125038.165000", "125038.775000", "125039.385000", "125039.995000", "125040.605000", "125041.215000", "125041.825000", "125042.435000", "125043.045000", "125043.655000", "125044.265000", "125044.875000", "125045.485000", "125046.095000", "125046.705000", "125047.315000", "125047.925000", "125048.535000", "125049.145000", "125049.755000", "125050.365000", "125050.975000", "125051.585000", "125052.195000"], "ContentTime": ["124600.999000", "124601.003000", "124601.005000", "124601.007000", "124601.010000", "124601.012000", "124601.015000", "124601.017000", "124601.019000", "124601.024000", "124601.027000", "124601.030000", "124601.032000", "124601.035000", "124601.037000", "124601.039000", "124601.042000", "124601.044000", "124601.046000", "124601.049000", "124601.051000", "124601.054000", "124601.056000", "124601.058000", "124601.061000", "124601.070000", "124601.073000", "124601.075000", "124601.077000", "124601.080000", "124601.082000", "124620.994000", "124620.997000", "124620.999000", "124621.001000", "124621.004000", "124621.006000", "124621.009000", "124621.011000", "124621.013000", "124621.016000", "124621.018000", "124621.020000", "124621.023000", "124621.025000", "124621.028000", "124621.030000", "124621.032000", "124621.035000", "124621.037000", "124621.039000", "124621.042000", "124621.044000", "124621.046000", "124621.049000", "124621.051000", "124621.053000", "124621.061000", "124621.064000", "124621.066000", "124621.068000", "124621.071000", "124621.073000", "124621.075000", "124640.994000", "124640.997000", "124640.999000", "124641.002000", "124641.004000", "124641.007000", "124641.009000", "124641.011000", "124641.014000", "124641.016000", "124641.023000", "124641.026000", "124641.028000", "124641.030000", "124641.033000", "124641.035000", "124641.037000", "124641.040000", "124641.042000", "124641.044000", "124641.047000", "124641.049000", "124641.051000", "124641.054000", "124641.056000", "124641.059000", "124641.061000", "124641.063000", "124641.066000", "124641.068000", "124641.070000", "124641.073000", "124641.075000", "124700.995000", "124700.998000", "124701.000000", "124701.003000", "124701.005000", "124701.008000", "124701.010000", "124701.012000", "124701.015000", "124701.017000", "124701.019000", "124701.022000", "124701.024000", "124701.027000", "124701.029000", "124701.031000", "124701.034000", "124701.036000", "124701.039000", "124701.041000", "124701.044000", "124701.046000", "124701.048000", "124701.051000", "124701.053000", "124701.056000", "124701.058000", "124701.060000", "124701.063000", "124701.065000", "124701.067000", "124701.070000", "124701.072000", "124720.995000", "124720.998000", "124721.002000", "124721.004000", "124721.006000", "124721.009000", "124721.011000", "124721.014000", "124721.016000", "124721.018000", "124721.021000", "124721.023000", "124721.025000", "124721.028000", "124721.030000", "124721.032000", "124721.035000", "124721.037000", "124721.040000", "124721.042000", "124721.044000", "124721.047000", "124721.049000", "124721.051000", "124721.054000", "124721.056000", "124721.058000", "124721.061000", "124721.063000", "124721.066000", "124721.068000", "124721.070000", "124740.995000", "124740.998000", "124741.000000", "124741.003000", "124741.005000", "124741.007000", "124741.010000", "124741.012000", "124741.014000", "124741.023000", "124741.026000", "124741.028000", "124741.031000", "124741.033000", "124741.035000", "124741.038000", "124741.040000", "124741.043000", "124741.045000", "124741.047000", "124741.050000", "124741.052000", "124741.054000", "124741.057000", "124741.059000", "124741.062000", "124741.064000", "124741.067000", "124741.070000", "124741.072000", "124741.075000", "124741.077000", "124741.079000", "124800.995000", "124800.998000", "124801.001000", "124801.004000", "124801.006000", "124801.009000", "124801.011000", "124801.013000", "124801.016000", "124801.018000", "124801.020000", "124801.023000", "124801.025000", "124801.028000", "124801.030000", "124801.033000", "124801.035000", "124801.037000", "124801.040000", "124801.042000", "124801.045000", "124801.047000", "124801.049000", "124801.052000", "124801.054000", "124801.056000", "124801.059000", "124801.061000", "124801.064000", "124801.066000", "124801.068000", "124801.071000", "124801.073000", "124820.994000", "124820.997000", "124820.999000", "124821.002000", "124821.004000", "124821.006000", "124821.009000", "124821.022000", "124821.025000", "124821.027000", "124821.029000", "124821.032000", "124821.034000", "124821.037000", "124821.039000", "124821.041000", "124821.044000", "124821.046000", "124821.048000", "124821.051000", "124821.053000", "124821.056000", "124821.058000", "124821.060000", "124821.063000", "124821.065000", "124821.067000", "124821.070000", "124821.072000", "124821.075000", "124821.077000", "124821.079000", "124821.082000", "124840.994000", "124840.997000", "124840.999000", "124841.002000", "124841.004000", "124841.006000", "124841.009000", "124841.011000", "124841.014000", "124841.016000", "124841.019000", "124841.021000", "124841.023000", "124841.026000", "124841.028000", "124841.031000", "124841.033000", "124841.035000", "124841.038000", "124841.040000", "124841.042000", "124841.045000", "124841.047000", "124841.050000", "124841.052000", "124841.054000", "124841.057000", "124841.059000", "124841.061000", "124841.064000", "124841.066000", "124841.069000", "124841.071000", "124900.994000", "124900.997000", "124900.999000", "124901.002000", "124901.004000", "124901.006000", "124901.009000", "124901.011000", "124901.014000", "124901.016000", "124901.019000", "124901.021000", "124901.023000", "124901.026000", "124901.028000", "124901.030000", "124901.033000", "124901.035000", "124901.038000", "124901.040000", "124901.043000", "124901.045000", "124901.047000", "124901.050000", "124901.052000", "124901.055000", "124901.057000", "124901.059000", "124901.062000", "124901.064000", "124901.066000", "124901.069000", "124920.995000", "124920.998000", "124921.000000", "124921.003000", "124921.005000", "124921.007000", "124921.010000", "124921.012000", "124921.015000", "124921.017000", "124921.019000", "124921.022000", "124921.024000", "124921.026000", "124921.029000", "124921.031000", "124921.034000", "124921.036000", "124921.039000", "124921.041000", "124921.043000", "124921.046000", "124921.048000", "124921.051000", "124921.053000", "124921.055000", "124921.058000", "124921.060000", "124921.062000", "124921.065000", "124921.067000", "124921.070000", "124921.072000", "124940.995000", "124940.998000", "124941.000000", "124941.002000", "124941.005000", "124941.007000", "124941.010000", "124941.012000", "124941.014000", "124941.017000", "124941.019000", "124941.022000", "124941.024000", "124941.026000", "124941.029000", "124941.031000", "124941.034000", "124941.036000", "124941.038000", "124941.041000", "124941.043000", "124941.046000", "124941.048000", "124941.051000", "124941.053000", "124941.055000", "124941.058000", "124941.060000", "124941.062000", "124941.065000", "124941.067000", "124941.070000", "124941.072000", "125000.995000", "125000.998000", "125001.001000", "125001.004000", "125001.006000", "125001.008000", "125001.011000", "125001.013000", "125001.015000", "125001.018000", "125001.020000", "125001.023000", "125001.025000", "125001.027000", "125001.030000", "125001.032000", "125001.035000", "125001.037000", "125001.039000", "125001.042000", "125001.044000", "125001.047000", "125001.049000", "125001.051000", "125001.054000", "125001.056000", "125001.058000", "125001.061000", "125001.063000", "125001.065000", "125001.068000", "125001.070000", "125001.073000", "125020.995000", "125020.998000", "125021.001000", "125021.004000", "125021.006000", "125021.009000", "125021.011000", "125021.013000", "125021.016000", "125021.019000", "125021.021000", "125021.023000", "125021.026000", "125021.028000", "125021.031000", "125021.033000", "125021.035000", "125021.038000", "125021.040000", "125021.043000", "125021.045000", "125021.048000", "125021.050000", "125021.053000", "125021.055000", "125021.057000", "125021.060000", "125021.062000", "125021.065000", "125021.067000", "125021.070000", "125021.072000", "125040.994000", "125040.997000", "125040.999000", "125041.002000", "125041.004000", "125041.006000", "125041.009000", "125041.011000", "125041.014000", "125041.017000", "125041.019000", "125041.022000", "125041.024000", "125041.026000", "125041.061000", "125041.064000", "125041.066000", "125041.068000", "125041.071000", "125041.074000", "125041.076000", "125041.078000", "125041.081000", "125041.083000", "125041.086000", "125041.088000", "125041.090000", "125041.093000", "125041.095000", "125041.097000", "125041.100000", "125041.102000", "125041.105000", "125052.732000", "125052.735000", "125052.738000", "125052.741000", "125052.743000", "125052.746000", "125052.748000", "125052.750000", "125052.753000", "125052.755000", "125052.758000", "125052.760000", "125052.762000", "125052.765000", "125052.773000", "125052.776000", "125052.778000", "125052.780000", "125052.783000", "125052.785000"], "InstanceCreationTime": ["124600.999000", "124601.003000", "124601.005000", "124601.007000", "124601.010000", "124601.012000", "124601.015000", "124601.017000", "124601.019000", "124601.024000", "124601.027000", "124601.030000", "124601.032000", "124601.035000", "124601.037000", "124601.039000", "124601.042000", "124601.044000", "124601.046000", "124601.049000", "124601.051000", "124601.054000", "124601.056000", "124601.058000", "124601.061000", "124601.070000", "124601.073000", "124601.075000", "124601.077000", "124601.080000", "124601.082000", "124620.994000", "124620.997000", "124620.999000", "124621.001000", "124621.004000", "124621.006000", "124621.009000", "124621.011000", "124621.013000", "124621.016000", "124621.018000", "124621.020000", "124621.023000", "124621.025000", "124621.028000", "124621.030000", "124621.032000", "124621.035000", "124621.037000", "124621.039000", "124621.042000", "124621.044000", "124621.046000", "124621.049000", "124621.051000", "124621.053000", "124621.061000", "124621.064000", "124621.066000", "124621.068000", "124621.071000", "124621.073000", "124621.075000", "124640.994000", "124640.997000", "124640.999000", "124641.002000", "124641.004000", "124641.007000", "124641.009000", "124641.011000", "124641.014000", "124641.016000", "124641.023000", "124641.026000", "124641.028000", "124641.030000", "124641.033000", "124641.035000", "124641.037000", "124641.040000", "124641.042000", "124641.044000", "124641.047000", "124641.049000", "124641.051000", "124641.054000", "124641.056000", "124641.059000", "124641.061000", "124641.063000", "124641.066000", "124641.068000", "124641.070000", "124641.073000", "124641.075000", "124700.995000", "124700.998000", "124701.000000", "124701.003000", "124701.005000", "124701.008000", "124701.010000", "124701.012000", "124701.015000", "124701.017000", "124701.019000", "124701.022000", "124701.024000", "124701.027000", "124701.029000", "124701.031000", "124701.034000", "124701.036000", "124701.039000", "124701.041000", "124701.044000", "124701.046000", "124701.048000", "124701.051000", "124701.053000", "124701.056000", "124701.058000", "124701.060000", "124701.063000", "124701.065000", "124701.067000", "124701.070000", "124701.072000", "124720.995000", "124720.998000", "124721.002000", "124721.004000", "124721.006000", "124721.009000", "124721.011000", "124721.014000", "124721.016000", "124721.018000", "124721.021000", "124721.023000", "124721.025000", "124721.028000", "124721.030000", "124721.032000", "124721.035000", "124721.037000", "124721.040000", "124721.042000", "124721.044000", "124721.047000", "124721.049000", "124721.051000", "124721.054000", "124721.056000", "124721.058000", "124721.061000", "124721.063000", "124721.066000", "124721.068000", "124721.070000", "124740.995000", "124740.998000", "124741.000000", "124741.003000", "124741.005000", "124741.007000", "124741.010000", "124741.012000", "124741.014000", "124741.023000", "124741.026000", "124741.028000", "124741.031000", "124741.033000", "124741.035000", "124741.038000", "124741.040000", "124741.043000", "124741.045000", "124741.047000", "124741.050000", "124741.052000", "124741.054000", "124741.057000", "124741.059000", "124741.062000", "124741.064000", "124741.067000", "124741.070000", "124741.072000", "124741.075000", "124741.077000", "124741.079000", "124800.995000", "124800.998000", "124801.001000", "124801.004000", "124801.006000", "124801.009000", "124801.011000", "124801.013000", "124801.016000", "124801.018000", "124801.020000", "124801.023000", "124801.025000", "124801.028000", "124801.030000", "124801.033000", "124801.035000", "124801.037000", "124801.040000", "124801.042000", "124801.045000", "124801.047000", "124801.049000", "124801.052000", "124801.054000", "124801.056000", "124801.059000", "124801.061000", "124801.064000", "124801.066000", "124801.068000", "124801.071000", "124801.073000", "124820.994000", "124820.997000", "124820.999000", "124821.002000", "124821.004000", "124821.006000", "124821.009000", "124821.022000", "124821.025000", "124821.027000", "124821.029000", "124821.032000", "124821.034000", "124821.037000", "124821.039000", "124821.041000", "124821.044000", "124821.046000", "124821.048000", "124821.051000", "124821.053000", "124821.056000", "124821.058000", "124821.060000", "124821.063000", "124821.065000", "124821.067000", "124821.070000", "124821.072000", "124821.075000", "124821.077000", "124821.079000", "124821.082000", "124840.994000", "124840.997000", "124840.999000", "124841.002000", "124841.004000", "124841.006000", "124841.009000", "124841.011000", "124841.014000", "124841.016000", "124841.019000", "124841.021000", "124841.023000", "124841.026000", "124841.028000", "124841.031000", "124841.033000", "124841.035000", "124841.038000", "124841.040000", "124841.042000", "124841.045000", "124841.047000", "124841.050000", "124841.052000", "124841.054000", "124841.057000", "124841.059000", "124841.061000", "124841.064000", "124841.066000", "124841.069000", "124841.071000", "124900.994000", "124900.997000", "124900.999000", "124901.002000", "124901.004000", "124901.006000", "124901.009000", "124901.011000", "124901.014000", "124901.016000", "124901.019000", "124901.021000", "124901.023000", "124901.026000", "124901.028000", "124901.030000", "124901.033000", "124901.035000", "124901.038000", "124901.040000", "124901.043000", "124901.045000", "124901.047000", "124901.050000", "124901.052000", "124901.055000", "124901.057000", "124901.059000", "124901.062000", "124901.064000", "124901.066000", "124901.069000", "124920.995000", "124920.998000", "124921.000000", "124921.0030