{"AcquisitionMatrixPE": 64, "AcquisitionNumber": 1, "AcquisitionTime": "12:45:48.697500", "BandwidthPerPixelPhaseEncode": 28.935, "BaseResolution": 64, "BodyPartExamined": "BRAIN", "CoilCombinationMethod": "Sum of Squares", "ConsistencyInfo": "N4_VE11E_LATEST_20181129", "ConversionSoftware": "dcm2niix", "ConversionSoftwareVersion": "v1.0.20230411", "DerivedVendorReportedEchoSpacing": 0.000540003, "DeviceSerialNumber": "166182", "DwellTime": 3.4e-06, "EchoTime": 0.032, "EchoTrainLength": 64, "EffectiveEchoSpacing": 0.000540003, "FlipAngle": 40, "HeudiconvVersion": "0.13.1", "ImageOrientationPatientDICOM": [0.999728, -0.01038, 0.0208954, 0.010644, 0.999864, -0.0125617], "ImageOrientationText": "Tra>Sag(1.2)>Cor(-0.7)", "ImageType": ["ORIGINAL", "PRIMARY", "M", "ND", "NORM", "MOSAIC"], "ImagingFrequency": 123.254605, "InPlanePhaseEncodingDirectionDICOM": "COL", "InstitutionAddress": "PEARSE STREET .,City,District,IE,D2", "InstitutionName": "TCIN", "InstitutionalDepartmentName": "MRI", "MRAcquisitionType": "2D", "MagneticFieldStrength": 3, "Manufacturer": "Siemens", "ManufacturersModelName": "Prisma", "Modality": "MR", "MultibandAccelerationFactor": 4, "NonlinearGradientCorrection": false, "PartialFourier": 1, "PatientPosition": "HFS", "PercentPhaseFOV": 100, "PercentSampling": 100, "PhaseEncodingDirection": "j-", "PhaseEncodingSteps": 64, "PhaseResolution": 1, "PixelBandwidth": 2300, "ProcedureStepDescription": "Rhodri^Head BOLD", "ProtocolName": "cmrr_mbep2d_Pictures_AP_RDS", "PulseSequenceDetails": "%SiemensSeq%\\ep2d_bold", "ReceiveCoilActiveElements": "HC2,4,6,7;SC", "ReceiveCoilName": "SpecialPurpose_4", "ReconMatrixPE": 64, "RefLinesPE": 12, "RepetitionTime": 0.61, "SAR": 0.287585, "ScanOptions": "FS", "ScanningSequence": "EP", "SequenceName": "*epfid2d1_64", "SequenceVariant": "SK", "SeriesDescription": "cmrr_mbep2d_Pictures_AP_RDS", "SeriesNumber": 8, "ShimSetting": [-3572, -7481, 3818, 1057, -10, -230, 458, -33], "SliceThickness": 3, "SliceTiming": [0.2625, 0, 0.3275, 0.065, 0.3925, 0.13, 0.46, 0.1975, 0.525, 0.2625, 0, 0.3275, 0.065, 0.3925, 0.13, 0.46, 0.1975, 0.525, 0.2625, 0, 0.3275, 0.065, 0.3925, 0.13, 0.46, 0.1975, 0.525, 0.2625, 0, 0.3275, 0.065, 0.3925, 0.13, 0.46, 0.1975, 0.525], "SoftwareVersions": "syngo MR E11", "SpacingBetweenSlices": 3.3, "StationName": "AWP166182", "TaskName": "pictures", "TotalReadoutTime": 0.0340202, "TxRefAmp": 237.345, "dcmmeta_affine": [[-2.999183416366577, 0.03193200007081032, 0.06851502507925034, 96.00501251220703], [0.03114008530974388, 2.9995932579040527, -0.0421762689948082, -109.43050384521484], [0.06268606334924698, 0.0376850925385952, 3.2990188598632812, -89.2825698852539], [0.0, 0.0, 0.0, 1.0]], "dcmmeta_reorient_transform": [[0.0, -1.0, 0.0, 63.0], [1.0, 0.0, 0.0, 0.0], [0.0, 0.0, 1.0, 0.0], [0.0, 0.0, 0.0, 1.0]], "dcmmeta_shape": [64, 64, 36, 510], "dcmmeta_slice_dim": 2, "dcmmeta_version": 0.6, "global": {"const": {"AcquisitionMatrix": [64, 0, 0, 64], "AngioFlag": "N", "BitsAllocated": 16, "BitsStored": 12, "BodyPartExamined": "BRAIN", "Columns": 384, "EchoNumbers": 1, "EchoTime": 32.0, "EchoTrainLength": 64, "FlipAngle": 40.0, "HighBit": 11, "ImageOrientationPatient": [0.99972778254948, -0.010380028728, 0.02089535360576, 0.01064400025478, 0.99986444532305, -0.0125616972345], "ImagePositionPatient": [-582.99518685802, -554.49639252716, -90.908561619171], "ImageType": ["ORIGINAL", "PRIMARY", "M", "ND", "NORM", "MOSAIC"], "ImagedNucleus": "1H", "ImagingFrequency": 123.254605, "InPlanePhaseEncodingDirection": "COL", "MRAcquisitionType": "2D", "MagneticFieldStrength": 3.0, "Manufacturer": "SIEMENS", "ManufacturerModelName": "Prisma", "Modality": "MR", "NumberOfAverages": 1.0, "NumberOfPhaseEncodingSteps": 64, "PercentPhaseFieldOfView": 100.0, "PercentSampling": 100.0, "PerformedProcedureStepStartTime": "122249.939000", "PhotometricInterpretation": "MONOCHROME2", "PixelBandwidth": 2300.0, "PixelRepresentation": 0, "PixelSpacing": [3.0, 3.0], "ProtocolName": "cmrr_mbep2d_Pictures_AP_RDS", "RepetitionTime": 610.0, "Rows": 384, "SAR": 0.28758484956036, "SamplesPerPixel": 1, "ScanOptions": "FS", "ScanningSequence": "EP", "SequenceName": "*epfid2d1_64", "SequenceVariant": "SK", "SeriesDescription": "cmrr_mbep2d_Pictures_AP_RDS", "SeriesNumber": 8, "SeriesTime": "124606.456000", "SliceLocation": -85.864162277784, "SliceThickness": 3.0, "SmallestImagePixelValue": 0, "SoftwareVersions": "syngo MR E11", "SpacingBetweenSlices": 3.2999998943449, "SpecificCharacterSet": "ISO_IR 100", "StudyID": "1", "StudyTime": "122249.821000", "TransmitCoilName": "Body", "VariableFlipAngleFlag": "N", "WindowCenterWidthExplanation": "Algo1"}, "slices": {}}, "time": {"samples": {"AcquisitionNumber": [1, 2, 3, 4, 5, 6, 7, 8, 9, 10, 11, 12, 13, 14, 15, 16, 17, 18, 19, 20, 21, 22, 23, 24, 25, 26, 27, 28, 29, 30, 31, 32, 33, 34, 35, 36, 37, 38, 39, 40, 41, 42, 43, 44, 45, 46, 47, 48, 49, 50, 51, 52, 53, 54, 55, 56, 57, 58, 59, 60, 61, 62, 63, 64, 65, 66, 67, 68, 69, 70, 71, 72, 73, 74, 75, 76, 77, 78, 79, 80, 81, 82, 83, 84, 85, 86, 87, 88, 89, 90, 91, 92, 93, 94, 95, 96, 97, 98, 99, 100, 101, 102, 103, 104, 105, 106, 107, 108, 109, 110, 111, 112, 113, 114, 115, 116, 117, 118, 119, 120, 121, 122, 123, 124, 125, 126, 127, 128, 129, 130, 131, 132, 133, 134, 135, 136, 137, 138, 139, 140, 141, 142, 143, 144, 145, 146, 147, 148, 149, 150, 151, 152, 153, 154, 155, 156, 157, 158, 159, 160, 161, 162, 163, 164, 165, 166, 167, 168, 169, 170, 171, 172, 173, 174, 175, 176, 177, 178, 179, 180, 181, 182, 183, 184, 185, 186, 187, 188, 189, 190, 191, 192, 193, 194, 195, 196, 197, 198, 199, 200, 201, 202, 203, 204, 205, 206, 207, 208, 209, 210, 211, 212, 213, 214, 215, 216, 217, 218, 219, 220, 221, 222, 223, 224, 225, 226, 227, 228, 229, 230, 231, 232, 233, 234, 235, 236, 237, 238, 239, 240, 241, 242, 243, 244, 245, 246, 247, 248, 249, 250, 251, 252, 253, 254, 255, 256, 257, 258, 259, 260, 261, 262, 263, 264, 265, 266, 267, 268, 269, 270, 271, 272, 273, 274, 275, 276, 277, 278, 279, 280, 281, 282, 283, 284, 285, 286, 287, 288, 289, 290, 291, 292, 293, 294, 295, 296, 297, 298, 299, 300, 301, 302, 303, 304, 305, 306, 307, 308, 309, 310, 311, 312, 313, 314, 315, 316, 317, 318, 319, 320, 321, 322, 323, 324, 325, 326, 327, 328, 329, 330, 331, 332, 333, 334, 335, 336, 337, 338, 339, 340, 341, 342, 343, 344, 345, 346, 347, 348, 349, 350, 351, 352, 353, 354, 355, 356, 357, 358, 359, 360, 361, 362, 363, 364, 365, 366, 367, 368, 369, 370, 371, 372, 373, 374, 375, 376, 377, 378, 379, 380, 381, 382, 383, 384, 385, 386, 387, 388, 389, 390, 391, 392, 393, 394, 395, 396, 397, 398, 399, 400, 401, 402, 403, 404, 405, 406, 407, 408, 409, 410, 411, 412, 413, 414, 415, 416, 417, 418, 419, 420, 421, 422, 423, 424, 425, 426, 427, 428, 429, 430, 431, 432, 433, 434, 435, 436, 437, 438, 439, 440, 441, 442, 443, 444, 445, 446, 447, 448, 449, 450, 451, 452, 453, 454, 455, 456, 457, 458, 459, 460, 461, 462, 463, 464, 465, 466, 467, 468, 469, 470, 471, 472, 473, 474, 475, 476, 477, 478, 479, 480, 481, 482, 483, 484, 485, 486, 487, 488, 489, 490, 491, 492, 493, 494, 495, 496, 497, 498, 499, 500, 501, 502, 503, 504, 505, 506, 507, 508, 509, 510], "AcquisitionTime": ["124548.697500", "124549.307500", "124549.917500", "124550.527500", "124551.137500", "124551.747500", "124552.357500", "124552.967500", "124553.577500", "124554.187500", "124554.797500", "124555.407500", "124556.017500", "124556.627500", "124557.237500", "124557.847500", "124558.457500", "124559.067500", "124559.677500", "124600.287500", "124600.897500", "124601.507500", "124602.117500", "124602.727500", "124603.337500", "124603.947500", "124604.557500", "124605.167500", "124605.777500", "124606.387500", "124606.997500", "124607.607500", "124608.217500", "124608.827500", "124609.437500", "124610.047500", "124610.657500", "124611.267500", "124611.877500", "124612.487500", "124613.097500", "124613.707500", "124614.317500", "124614.927500", "124615.537500", "124616.147500", "124616.757500", "124617.367500", "124617.977500", "124618.587500", "124619.197500", "124619.807500", "124620.417500", "124621.027500", "124621.637500", "124622.247500", "124622.857500", "124623.467500", "124624.077500", "124624.687500", "124625.297500", "124625.907500", "124626.517500", "124627.127500", "124627.737500", "124628.347500", "124628.957500", "124629.567500", "124630.177500", "124630.787500", "124631.397500", "124632.007500", "124632.617500", "124633.227500", "124633.837500", "124634.447500", "124635.057500", "124635.667500", "124636.277500", "124636.887500", "124637.497500", "124638.107500", "124638.717500", "124639.327500", "124639.937500", "124640.547500", "124641.157500", "124641.767500", "124642.377500", "124642.987500", "124643.597500", "124644.207500", "124644.817500", "124645.427500", "124646.037500", "124646.647500", "124647.257500", "124647.867500", "124648.477500", "124649.087500", "124649.697500", "124650.307500", "124650.917500", "124651.527500", "124652.137500", "124652.747500", "124653.357500", "124653.967500", "124654.577500", "124655.187500", "124655.797500", "124656.407500", "124657.017500", "124657.627500", "124658.237500", "124658.847500", "124659.457500", "124700.067500", "124700.677500", "124701.287500", "124701.897500", "124702.507500", "124703.117500", "124703.727500", "124704.337500", "124704.947500", "124705.557500", "124706.167500", "124706.777500", "124707.387500", "124707.997500", "124708.607500", "124709.217500", "124709.827500", "124710.437500", "124711.047500", "124711.657500", "124712.267500", "124712.877500", "124713.487500", "124714.097500", "124714.707500", "124715.317500", "124715.927500", "124716.537500", "124717.147500", "124717.757500", "124718.367500", "124718.977500", "124719.587500", "124720.197500", "124720.807500", "124721.417500", "124722.027500", "124722.637500", "124723.247500", "124723.857500", "124724.467500", "124725.077500", "124725.687500", "124726.297500", "124726.907500", "124727.517500", "124728.127500", "124728.737500", "124729.347500", "124729.957500", "124730.567500", "124731.177500", "124731.787500", "124732.397500", "124733.007500", "124733.617500", "124734.227500", "124734.837500", "124735.447500", "124736.057500", "124736.667500", "124737.277500", "124737.887500", "124738.497500", "124739.107500", "124739.717500", "124740.327500", "124740.937500", "124741.547500", "124742.157500", "124742.767500", "124743.377500", "124743.987500", "124744.597500", "124745.207500", "124745.817500", "124746.427500", "124747.037500", "124747.647500", "124748.257500", "124748.867500", "124749.477500", "124750.087500", "124750.697500", "124751.307500", "124751.917500", "124752.527500", "124753.137500", "124753.747500", "124754.357500", "124754.967500", "124755.577500", "124756.187500", "124756.797500", "124757.407500", "124758.017500", "124758.627500", "124759.237500", "124759.847500", "124800.457500", "124801.067500", "124801.677500", "124802.287500", "124802.897500", "124803.507500", "124804.117500", "124804.727500", "124805.337500", "124805.947500", "124806.557500", "124807.167500", "124807.777500", "124808.387500", "124808.997500", "124809.607500", "124810.217500", "124810.827500", "124811.437500", "124812.047500", "124812.657500", "124813.267500", "124813.877500", "124814.487500", "124815.097500", "124815.707500", "124816.317500", "124816.927500", "124817.537500", "124818.147500", "124818.757500", "124819.367500", "124819.977500", "124820.587500", "124821.197500", "124821.807500", "124822.417500", "124823.027500", "124823.637500", "124824.247500", "124824.857500", "124825.467500", "124826.077500", "124826.687500", "124827.297500", "124827.907500", "124828.517500", "124829.127500", "124829.737500", "124830.347500", "124830.957500", "124831.567500", "124832.177500", "124832.787500", "124833.397500", "124834.007500", "124834.617500", "124835.227500", "124835.837500", "124836.447500", "124837.057500", "124837.667500", "124838.277500", "124838.887500", "124839.497500", "124840.107500", "124840.717500", "124841.327500", "124841.937500", "124842.547500", "124843.157500", "124843.767500", "124844.377500", "124844.987500", "124845.597500", "124846.207500", "124846.817500", "124847.427500", "124848.037500", "124848.647500", "124849.257500", "124849.867500", "124850.477500", "124851.087500", "124851.697500", "124852.307500", "124852.917500", "124853.527500", "124854.137500", "124854.747500", "124855.357500", "124855.967500", "124856.577500", "124857.187500", "124857.797500", "124858.407500", "124859.017500", "124859.627500", "124900.237500", "124900.847500", "124901.457500", "124902.067500", "124902.677500", "124903.287500", "124903.897500", "124904.507500", "124905.117500", "124905.727500", "124906.337500", "124906.947500", "124907.557500", "124908.167500", "124908.777500", "124909.387500", "124909.997500", "124910.607500", "124911.217500", "124911.827500", "124912.437500", "124913.047500", "124913.657500", "124914.267500", "124914.877500", "124915.487500", "124916.097500", "124916.707500", "124917.317500", "124917.927500", "124918.537500", "124919.147500", "124919.757500", "124920.367500", "124920.977500", "124921.587500", "124922.197500", "124922.807500", "124923.417500", "124924.027500", "124924.637500", "124925.247500", "124925.857500", "124926.467500", "124927.077500", "124927.687500", "124928.297500", "124928.907500", "124929.517500", "124930.127500", "124930.737500", "124931.347500", "124931.957500", "124932.567500", "124933.177500", "124933.787500", "124934.397500", "124935.007500", "124935.617500", "124936.227500", "124936.837500", "124937.447500", "124938.057500", "124938.667500", "124939.277500", "124939.887500", "124940.497500", "124941.107500", "124941.717500", "124942.327500", "124942.937500", "124943.547500", "124944.157500", "124944.767500", "124945.377500", "124945.987500", "124946.597500", "124947.207500", "124947.817500", "124948.427500", "124949.037500", "124949.647500", "124950.257500", "124950.867500", "124951.477500", "124952.087500", "124952.697500", "124953.307500", "124953.917500", "124954.527500", "124955.137500", "124955.747500", "124956.357500", "124956.967500", "124957.577500", "124958.187500", "124958.797500", "124959.407500", "125000.017500", "125000.627500", "125001.237500", "125001.847500", "125002.457500", "125003.067500", "125003.677500", "125004.287500", "125004.897500", "125005.507500", "125006.117500", "125006.727500", "125007.337500", "125007.947500", "125008.557500", "125009.167500", "125009.777500", "125010.387500", "125010.997500", "125011.607500", "125012.217500", "125012.827500", "125013.437500", "125014.047500", "125014.657500", "125015.267500", "125015.877500", "125016.487500", "125017.097500", "125017.707500", "125018.317500", "125018.927500", "125019.537500", "125020.147500", "125020.757500", "125021.367500", "125021.977500", "125022.587500", "125023.197500", "125023.807500", "125024.417500", "125025.027500", "125025.637500", "125026.247500", "125026.857500", "125027.467500", "125028.077500", "125028.687500", "125029.297500", "125029.907500", "125030.517500", "125031.127500", "125031.737500", "125032.347500", "125032.957500", "125033.567500", "125034.177500", "125034.787500", "125035.397500", "125036.007500", "125036.617500", "125037.227500", "125037.837500", "125038.447500", "125039.057500", "125039.667500", "125040.277500", "125040.887500", "125041.497500", "125042.107500", "125042.717500", "125043.327500", "125043.937500", "125044.547500", "125045.157500", "125045.767500", "125046.377500", "125046.987500", "125047.597500", "125048.207500", "125048.817500", "125049.427500", "125050.037500", "125050.647500", "125051.257500", "125051.867500", "125052.477500", "125053.087500", "125053.697500", "125054.307500", "125054.917500", "125055.527500", "125056.137500", "125056.747500", "125057.357500", "125057.967500", "125058.577500", "125059.187500"], "ContentTime": ["124606.460000", "124606.464000", "124606.466000", "124606.469000", "124606.478000", "124606.480000", "124606.483000", "124606.485000", "124606.487000", "124606.490000", "124606.492000", "124606.495000", "124606.497000", "124606.500000", "124606.502000", "124606.504000", "124606.507000", "124606.509000", "124606.516000", "124606.519000", "124606.521000", "124606.523000", "124606.526000", "124606.528000", "124606.531000", "124606.544000", "124606.547000", "124606.549000", "124606.551000", "124626.456000", "124626.459000", "124626.461000", "124626.464000", "124626.466000", "124626.469000", "124626.472000", "124626.475000", "124626.478000", "124626.481000", "124626.485000", "124626.499000", "124626.503000", "124626.506000", "124626.508000", "124626.511000", "124626.513000", "124626.516000", "124626.518000", "124626.522000", "124626.525000", "124626.528000", "124626.531000", "124626.534000", "124626.536000", "124626.539000", "124626.541000", "124626.544000", "124626.550000", "124626.553000", "124626.555000", "124626.558000", "124646.455000", "124646.458000", "124646.460000", "124646.463000", "124646.465000", "124646.468000", "124646.470000", "124646.472000", "124646.475000", "124646.477000", "124646.480000", "124646.482000", "124646.484000", "124646.487000", "124646.489000", "124646.492000", "124646.494000", "124646.497000", "124646.499000", "124646.502000", "124646.504000", "124646.506000", "124646.509000", "124646.511000", "124646.514000", "124646.516000", "124646.518000", "124646.521000", "124646.523000", "124646.526000", "124646.528000", "124646.530000", "124646.533000", "124706.455000", "124706.458000", "124706.461000", "124706.463000", "124706.466000", "124706.468000", "124706.471000", "124706.473000", "124706.475000", "124706.478000", "124706.480000", "124706.483000", "124706.485000", "124706.487000", "124706.490000", "124706.492000", "124706.495000", "124706.497000", "124706.500000", "124706.502000", "124706.505000", "124706.507000", "124706.510000", "124706.512000", "124706.515000", "124706.517000", "124706.519000", "124706.522000", "124706.524000", "124706.527000", "124706.529000", "124706.532000", "124706.534000", "124726.455000", "124726.458000", "124726.460000", "124726.463000", "124726.465000", "124726.468000", "124726.470000", "124726.473000", "124726.475000", "124726.478000", "124726.480000", "124726.482000", "124726.485000", "124726.487000", "124726.489000", "124726.492000", "124726.494000", "124726.497000", "124726.499000", "124726.502000", "124726.504000", "124726.507000", "124726.509000", "124726.511000", "124726.514000", "124726.516000", "124726.519000", "124726.521000", "124726.523000", "124726.526000", "124726.547000", "124726.550000", "124726.552000", "124746.455000", "124746.458000", "124746.460000", "124746.462000", "124746.465000", "124746.467000", "124746.470000", "124746.472000", "124746.475000", "124746.477000", "124746.479000", "124746.482000", "124746.484000", "124746.486000", "124746.489000", "124746.491000", "124746.494000", "124746.496000", "124746.498000", "124746.501000", "124746.503000", "124746.510000", "124746.513000", "124746.515000", "124746.517000", "124746.520000", "124746.522000", "124746.524000", "124746.527000", "124746.529000", "124746.532000", "124746.534000", "124746.536000", "124806.455000", "124806.458000", "124806.460000", "124806.463000", "124806.477000", "124806.480000", "124806.482000", "124806.485000", "124806.487000", "124806.489000", "124806.492000", "124806.494000", "124806.497000", "124806.499000", "124806.502000", "124806.504000", "124806.507000", "124806.509000", "124806.512000", "124806.514000", "124806.516000", "124806.519000", "124806.521000", "124806.524000", "124806.526000", "124806.529000", "124806.532000", "124806.534000", "124806.536000", "124806.539000", "124806.541000", "124806.543000", "124826.455000", "124826.458000", "124826.461000", "124826.463000", "124826.466000", "124826.468000", "124826.470000", "124826.473000", "124826.476000", "124826.479000", "124826.481000", "124826.484000", "124826.486000", "124826.489000", "124826.491000", "124826.493000", "124826.496000", "124826.498000", "124826.501000", "124826.503000", "124826.505000", "124826.508000", "124826.510000", "124826.513000", "124826.515000", "124826.517000", "124826.520000", "124826.522000", "124826.525000", "124826.527000", "124826.530000", "124826.532000", "124826.534000", "124846.456000", "124846.459000", "124846.461000", "124846.464000", "124846.466000", "124846.468000", "124846.471000", "124846.473000", "124846.476000", "124846.478000", "124846.489000", "124846.492000", "124846.494000", "124846.496000", "124846.499000", "124846.501000", "124846.504000", "124846.506000", "124846.508000", "124846.511000", "124846.513000", "124846.516000", "124846.518000", "124846.520000", "124846.523000", "124846.525000", "124846.527000", "124846.534000", "124846.537000", "124846.539000", "124846.542000", "124846.544000", "124846.546000", "124906.455000", "124906.458000", "124906.460000", "124906.463000", "124906.466000", "124906.468000", "124906.470000", "124906.473000", "124906.476000", "124906.478000", "124906.480000", "124906.483000", "124906.485000", "124906.488000", "124906.490000", "124906.493000", "124906.495000", "124906.497000", "124906.500000", "124906.502000", "124906.504000", "124906.507000", "124906.509000", "124906.512000", "124906.514000", "124906.516000", "124906.519000", "124906.521000", "124906.524000", "124906.526000", "124906.528000", "124906.531000", "124906.533000", "124926.455000", "124926.458000", "124926.460000", "124926.463000", "124926.465000", "124926.468000", "124926.470000", "124926.472000", "124926.475000", "124926.477000", "124926.480000", "124926.482000", "124926.485000", "124926.487000", "124926.490000", "124926.492000", "124926.495000", "124926.497000", "124926.499000", "124926.502000", "124926.504000", "124926.507000", "124926.509000", "124926.512000", "124926.514000", "124926.516000", "124926.519000", "124926.521000", "124926.524000", "124926.526000", "124926.529000", "124926.531000", "124926.533000", "124946.455000", "124946.458000", "124946.460000", "124946.463000", "124946.465000", "124946.468000", "124946.470000", "124946.473000", "124946.475000", "124946.478000", "124946.480000", "124946.482000", "124946.485000", "124946.487000", "124946.490000", "124946.492000", "124946.494000", "124946.497000", "124946.499000", "124946.502000", "124946.504000", "124946.506000", "124946.509000", "124946.511000", "124946.514000", "124946.516000", "124946.518000", "124946.521000", "124946.523000", "124946.526000", "124946.529000", "124946.531000", "125006.455000", "125006.458000", "125006.460000", "125006.463000", "125006.465000", "125006.468000", "125006.470000", "125006.473000", "125006.475000", "125006.478000", "125006.480000", "125006.482000", "125006.485000", "125006.487000", "125006.490000", "125006.492000", "125006.495000", "125006.497000", "125006.499000", "125006.502000", "125006.504000", "125006.507000", "125006.509000", "125006.512000", "125006.515000", "125006.517000", "125006.520000", "125006.522000", "125006.525000", "125006.527000", "125006.529000", "125006.532000", "125006.534000", "125026.455000", "125026.458000", "125026.460000", "125026.463000", "125026.465000", "125026.468000", "125026.470000", "125026.472000", "125026.475000", "125026.477000", "125026.485000", "125026.487000", "125026.489000", "125026.492000", "125026.494000", "125026.497000", "125026.499000", "125026.502000", "125026.504000", "125026.507000", "125026.509000", "125026.511000", "125026.514000", "125026.516000", "125026.518000", "125026.521000", "125026.523000", "125026.526000", "125026.528000", "125026.530000", "125026.533000", "125026.535000", "125026.538000", "125046.455000", "125046.458000", "125046.460000", "125046.463000", "125046.465000", "125046.468000", "125046.470000", "125046.472000", "125046.475000", "125046.477000", "125046.480000", "125046.482000", "125046.485000", "125046.487000", "125046.489000", "125046.492000", "125046.494000", "125046.497000", "125046.499000", "125046.501000", "125046.504000", "125046.506000", "125046.509000", "125046.511000", "125046.513000", "125046.516000", "125046.518000", "125046.520000", "125046.523000", "125046.525000", "125046.528000", "125046.530000", "125046.532000", "125059.714000", "125059.717000", "125059.719000", "125059.722000", "125059.724000", "125059.727000", "125059.729000", "125059.731000", "125059.734000", "125059.736000", "125059.739000", "125059.741000", "125059.743000", "125059.746000", "125059.748000", "125059.751000", "125059.753000", "125059.755000", "125059.758000", "125059.760000", "125059.763000", "125059.765000"], "InstanceCreationTime": ["124606.460000", "124606.464000", "124606.466000", "124606.469000", "124606.478000", "124606.480000", "124606.483000", "124606.485000", "124606.487000", "124606.490000", "124606.492000", "124606.495000", "124606.497000", "124606.500000", "124606.502000", "124606.504000", "124606.507000", "124606.509000", "124606.516000", "124606.519000", "124606.521000", "124606.523000", "124606.526000", "124606.528000", "124606.531000", "124606.544000", "124606.547000", "124606.549000", "124606.551000", "124626.456000", "124626.459000", "124626.461000", "124626.464000", "124626.466000", "124626.469000", "124626.472000", "124626.475000", "124626.478000", "124626.481000", "124626.485000", "124626.499000", "124626.503000", "124626.506000", "124626.508000", "124626.511000", "124626.513000", "124626.516000", "124626.518000", "124626.522000", "124626.525000", "124626.528000", "124626.531000", "124626.534000", "124626.536000", "124626.539000", "124626.541000", "124626.544000", "124626.550000", "124626.553000", "124626.555000", "124626.558000", "124646.455000", "124646.458000", "124646.460000", "124646.463000", "124646.465000", "124646.468000", "124646.470000", "124646.472000", "124646.475000", "124646.477000", "124646.480000", "124646.482000", "124646.484000", "124646.487000", "124646.489000", "124646.492000", "124646.494000", "124646.497000", "124646.499000", "124646.502000", "124646.504000", "124646.506000", "124646.509000", "124646.511000", "124646.514000", "124646.516000", "124646.518000", "124646.521000", "124646.523000", "124646.526000", "124646.528000", "124646.530000", "124646.533000", "124706.455000", "124706.458000", "124706.461000", "124706.463000", "124706.466000", "124706.468000", "124706.471000", "124706.473000", "124706.475000", "124706.478000", "124706.480000", "124706.483000", "124706.485000", "124706.487000", "124706.490000", "124706.492000", "124706.495000", "124706.497000", "124706.500000", "124706.502000", "124706.505000", "124706.507000", "124706.510000", "124706.512000", "124706.515000", "124706.517000", "124706.519000", "124706.522000", "124706.524000", "124706.527000", "124706.529000", "124706.532000", "124706.534000", "124726.455000", "124726.458000", "124726.460000", "124726.463000", "124726.465000", "124726.468000", "124726.470000", "124726.473000", "124726.475000", "124726.478000", "124726.480000", "124726.482000", "124726.485000", "124726.487000", "124726.489000", "124726.492000", "124726.494000", "124726.497000", "124726.499000", "124726.502000", "124726.504000", "124726.507000", "124726.509000", "124726.511000", "124726.514000", "124726.516000", "124726.519000", "124726.521000", "124726.523000", "124726.526000", "124726.547000", "124726.550000", "124726.552000", "124746.455000", "124746.458000", "124746.460000", "124746.462000", "124746.465000", "124746.467000", "124746.470000", "124746.472000", "124746.475000", "124746.477000", "124746.479000", "124746.482000", "124746.484000", "124746.486000", "124746.489000", "124746.491000", "124746.494000", "124746.496000", "124746.498000", "124746.501000", "124746.503000", "124746.510000", "124746.513000", "124746.515000", "124746.517000", "124746.520000", "124746.522000", "124746.524000", "124746.527000", "124746.529000", "124746.532000", "124746.534000", "124746.536000", "124806.455000", "124806.458000", "124806.460000", "124806.463000", "124806.477000", "124806.480000", "124806.482000", "124806.485000", "124806.487000", "124806.489000", "124806.492000", "124806.494000", "124806.497000", "124806.499000", "124806.502000", "124806.504000", "124806.507000", "124806.509000", "124806.512000", "124806.514000", "124806.516000", "124806.519000", "124806.521000", "124806.524000", "124806.526000", "124806.529000", "124806.532000", "124806.534000", "124806.536000", "124806.539000", "124806.541000", "124806.543000", "124826.455000", "124826.458000", "124826.461000", "124826.463000", "124826.466000", "124826.468000", "124826.470000", "124826.473000", "124826.476000", "124826.479000", "124826.481000", "124826.484000", "124826.486000", "124826.489000", "124826.491000", "124826.493000", "124826.496000", "124826.498000", "124826.501000", "124826.503000", "124826.505000", "124826.508000", "124826.510000", "124826.513000", "124826.515000", "124826.517000", "124826.520000", "124826.522000", "124826.525000", "124826.527000", "124826.530000", "124826.532000", "124826.534000", "124846.456000", "124846.459000", "124846.461000", "124846.464000", "124846.466000", "124846.468000", "124846.471000", "124846.473000", "124846.476000", "124846.478000", "124846.489000", "124846.492000", "124846.494000", "124846.496000", "124846.499000", "124846.501000", "124846.504000", "124846.506000", "124846.508000", "124846.511000", "124846.513000", "124846.516000", "124846.518000", "124846.520000", "124846.523000", "124846.525000", "124846.527000", "124846.534000", "124846.537000", "124846.539000", "124846.542000", "124846.544000", "124846.546000", "124906.455000", "124906.458000", "124906.460000", "124906.463000", "124906.466000", "124906.468000", "124906.470000", "124906.473000", "124906.476000", "124906.478000", "124906.480000", "124906.483000", "124906.485000", "124906.488000", "124906.490000", "124906.493000", "124906.495000", "124906.497000", "124906.500000", "124906.502000", "124906.504000", "124906.507000", "124906.509000", "124906.512000", "124906.514000", "124906.516000", "124906.519000", "124906.521000", "124906.524000", "124